/* ; 2ÆŸ 0.61-20.00 by 0.020, dwell 4 s; Silver Behenate with Baffle and Anti_Scatter Slit - 16_03_09_0015_Silver Behenate with Baffle and Anti_Scatter Slit_highrez.xml; KAlpha1 1.540593; */
/* 985 */
 0.6098        271.2500          5.8229
 0.6295        262.1250          5.7241
 0.6492        262.1250          5.7241
 0.6689        244.3750          5.5269
 0.6886        236.1250          5.4328
 0.7083        215.5000          5.1901
 0.7280        210.2500          5.1265
 0.7477        203.5000          5.0436
 0.7674        190.5000          4.8798
 0.7871        178.2500          4.7203
 0.8068        179.0000          4.7302
 0.8265        173.1250          4.6519
 0.8462        158.0000          4.4441
 0.8659        159.1250          4.4599
 0.8856        157.5000          4.4371
 0.9053        159.6250          4.4669
 0.9250        153.8750          4.3857
 0.9447        160.2500          4.4756
 0.9644        155.8750          4.4141
 0.9841        154.2500          4.3910
 1.0038        161.1250          4.4878
 1.0235        160.7500          4.4826
 1.0431        164.7500          4.5380
 1.0628        173.7500          4.6603
 1.0825        181.6667          3.8909
 1.1022        189.6667          3.9756
 1.1219        199.5833          4.0782
 1.1416        212.2500          3.6422
 1.1613        217.1875          3.6843
 1.1810        238.1250          3.8578
 1.2007        266.8125          4.0836
 1.2204        290.3125          4.2596
 1.2401        317.1875          4.4524
 1.2598        363.8750          4.7689
 1.2795        399.4375          4.9965
 1.2992        456.5000          5.3415
 1.3189        517.5625          5.6875
 1.3386        596.6250          6.1065
 1.3583        704.2500          6.6344
 1.3780        841.5000          7.2522
 1.3977       1048.8125          8.0963
 1.4174       1377.5625          9.2789
 1.4371       1758.0625         10.4823
 1.4568       2204.5625         11.7382
 1.4764       2381.8125         12.2010
 1.4961       2063.4375         11.3563
 1.5158       1494.4375          9.6645
 1.5355        919.5000          7.5808
 1.5552        542.1875          5.8212
 1.5749        343.9375          4.6364
 1.5946        236.1875          3.8421
 1.6143        177.2500          3.3284
 1.6340        143.6250          2.9961
 1.6537        117.7500          2.7128
 1.6734        102.5000          2.5311
 1.6931         93.9375          2.4230
 1.7128         83.1875          2.2802
 1.7325         73.5625          2.1442
 1.7522         74.3125          2.1551
 1.7719         68.4375          2.0682
 1.7916         62.8750          1.9823
 1.8113         55.1250          1.8562
 1.8310         52.5000          1.8114
 1.8507         47.8750          1.7298
 1.8704         44.0000          1.6583
 1.8901         42.0625          1.6214
 1.9097         44.4375          1.6665
 1.9294         43.3125          1.6453
 1.9491         37.3125          1.5271
 1.9688         38.5625          1.5525
 1.9885         38.5000          1.5512
 2.0082         33.0625          1.4375
 2.0279         36.0625          1.5013
 2.0476         36.6250          1.5130
 2.0673         34.2500          1.4631
 2.0870         36.1875          1.5039
 2.1067         35.1250          1.4817
 2.1264         36.1250          1.5026
 2.1461         34.6250          1.4711
 2.1658         34.8000          1.3191
 2.1855         33.9000          1.3019
 2.2052         35.4500          1.3314
 2.2249         36.2500          1.3463
 2.2446         37.5000          1.3693
 2.2643         38.5417          1.2672
 2.2840         37.8333          1.2555
 2.3037         41.4583          1.3143
 2.3234         39.7083          1.2863
 2.3430         40.2917          1.2957
 2.3627         42.2500          1.3268
 2.3824         44.3750          1.3598
 2.4021         46.9167          1.3982
 2.4218         48.5833          1.4228
 2.4415         49.7500          1.4398
 2.4612         51.3333          1.4625
 2.4809         52.7083          1.4820
 2.5006         59.4583          1.5740
 2.5203         56.1250          1.5292
 2.5400         62.4583          1.6132
 2.5597         63.8333          1.6309
 2.5794         67.6667          1.6791
 2.5991         72.5000          1.7381
 2.6188         78.2917          1.8061
 2.6385         82.9167          1.8587
 2.6582         89.0000          1.9257
 2.6779         93.9167          1.9782
 2.6976        105.1667          2.0933
 2.7173        114.0833          2.1802
 2.7370        123.2917          2.2665
 2.7567        136.4583          2.3845
 2.7763        156.9167          2.5570
 2.7960        174.1667          2.6939
 2.8157        189.5000          2.8100
 2.8354        213.2083          2.9806
 2.8551        241.8333          3.1743
 2.8748        285.7500          3.4505
 2.8945        349.3333          3.8152
 2.9142        415.4167          4.1604
 2.9339        502.7500          4.5769
 2.9536        610.6667          5.0442
 2.9733        684.6250          5.3410
 2.9930        660.5417          5.2462
 3.0127        530.2500          4.7004
 3.0324        359.3750          3.8696
 3.0521        216.9167          3.0064
 3.0718        134.7500          2.3695
 3.0915         96.6667          2.0069
 3.1112         69.6667          1.7038
 3.1309         59.4583          1.5740
 3.1506         47.8333          1.4118
 3.1703         42.2917          1.3275
 3.1900         39.3750          1.2809
 3.2096         37.1667          1.2444
 3.2293         33.8333          1.1873
 3.2490         32.8214          1.0827
 3.2687         32.5357          1.0780
 3.2884         27.7143          0.9949
 3.3081         28.6786          1.0120
 3.3278         27.1071          0.9839
 3.3475         27.9643          0.9994
 3.3672         26.8571          0.9794
 3.3869         24.4375          0.8739
 3.4066         24.2500          0.8705
 3.4263         25.2813          0.8888
 3.4460         23.0625          0.8489
 3.4657         22.2188          0.8333
 3.4854         22.8125          0.8443
 3.5051         22.7188          0.8426
 3.5248         20.7188          0.8046
 3.5445         23.1875          0.8512
 3.5642         21.2813          0.8155
 3.5839         23.4375          0.8558
 3.6036         22.3438          0.8356
 3.6233         22.9375          0.8466
 3.6429         21.8438          0.8262
 3.6626         22.5000          0.8385
 3.6823         22.8438          0.8449
 3.7020         22.8125          0.8443
 3.7217         23.3125          0.8535
 3.7414         23.5938          0.8587
 3.7611         24.2500          0.8705
 3.7808         24.8125          0.8806
 3.8005         25.1875          0.8872
 3.8202         25.5313          0.8932
 3.8399         27.3438          0.9244
 3.8596         29.5000          0.9601
 3.8793         28.5938          0.9453
 3.8990         28.6250          0.9458
 3.9187         30.4688          0.9758
 3.9384         33.5313          1.0236
 3.9581         34.7813          1.0426
 3.9778         34.8438          1.0435
 3.9975         38.2188          1.0929
 4.0172         38.0938          1.0911
 4.0369         42.3125          1.1499
 4.0566         46.9063          1.2107
 4.0762         49.2813          1.2410
 4.0959         51.9063          1.2736
 4.1156         55.6875          1.3192
 4.1353         60.0313          1.3697
 4.1550         62.7188          1.4000
 4.1747         70.0625          1.4797
 4.1944         77.9063          1.5603
 4.2141         81.2500          1.5934
 4.2338         88.0938          1.6592
 4.2535         99.2188          1.7608
 4.2732        110.2813          1.8564
 4.2929        121.0000          1.9445
 4.3126        139.5000          2.0879
 4.3323        157.7188          2.2201
 4.3520        176.8889          2.2167
 4.3717        199.4722          2.3539
 4.3914        233.4444          2.5465
 4.4111        276.6667          2.7722
 4.4308        322.0278          2.9909
 4.4505        387.3333          3.2801
 4.4702        444.2778          3.5130
 4.4899        469.0833          3.6097
 4.5095        421.8056          3.4230
 4.5292        311.0250          2.7885
 4.5489        192.4750          2.1936
 4.5686        109.0500          1.6511
 4.5883         66.2750          1.2872
 4.6080         45.7000          1.0689
 4.6277         36.3250          0.9530
 4.6474         28.1000          0.8382
 4.6671         24.2250          0.7782
 4.6868         22.0500          0.7425
 4.7065         19.0250          0.6897
 4.7262         16.8250          0.6486
 4.7459         16.4250          0.6408
 4.7656         15.7750          0.6280
 4.7853         14.3000          0.5979
 4.8050         15.2500          0.6175
 4.8247         12.5250          0.5596
 4.8444         13.2750          0.5761
 4.8641         12.2750          0.5540
 4.8838         12.2750          0.5540
 4.9035         11.3500          0.5327
 4.9232         11.3750          0.5333
 4.9428         10.9500          0.5232
 4.9625         11.4750          0.5356
 4.9822         10.4250          0.5105
 5.0019         10.3500          0.5087
 5.0216         10.1000          0.5025
 5.0413         10.6250          0.5154
 5.0610          9.8250          0.4956
 5.0807         10.1000          0.5025
 5.1004          9.4750          0.4867
 5.1201          9.4500          0.4861
 5.1398         10.0500          0.5012
 5.1595         10.1000          0.5025
 5.1792         10.1000          0.5025
 5.1989         10.1250          0.5031
 5.2186          9.6250          0.4905
 5.2383         10.0750          0.5019
 5.2580         10.0250          0.5006
 5.2777         10.9000          0.5220
 5.2974         10.8750          0.5214
 5.3171         11.2000          0.5292
 5.3368         11.4250          0.5344
 5.3565         10.4000          0.5099
 5.3761         10.9500          0.5232
 5.3958         12.0750          0.5494
 5.4155         13.0500          0.5712
 5.4352         12.4545          0.5320
 5.4549         12.7955          0.5393
 5.4746         14.7955          0.5799
 5.4943         14.1591          0.5673
 5.5140         14.9091          0.5821
 5.5337         16.1591          0.6060
 5.5534         17.4545          0.6298
 5.5731         17.6364          0.6331
 5.5928         17.8864          0.6376
 5.6125         20.7500          0.6867
 5.6322         20.6136          0.6845
 5.6519         24.3333          0.7120
 5.6716         26.2292          0.7392
 5.6913         28.0833          0.7649
 5.7110         30.0208          0.7908
 5.7307         33.9167          0.8406
 5.7504         36.7708          0.8752
 5.7701         40.1042          0.9141
 5.7898         46.3125          0.9823
 5.8094         51.6042          1.0369
 5.8291         56.8542          1.0883
 5.8488         61.9583          1.1361
 5.8685         70.8333          1.2148
 5.8882         83.7917          1.3212
 5.9079         93.6042          1.3965
 5.9276        114.6250          1.5453
 5.9473        135.5417          1.6804
 5.9670        160.6458          1.8294
 5.9867        181.6250          1.9452
 6.0064        186.1875          1.9695
 6.0261        159.1875          1.8211
 6.0458        116.1250          1.5554
 6.0655         72.8542          1.2320
 6.0852         42.7917          0.9442
 6.1049         28.4375          0.7697
 6.1246         20.1458          0.6478
 6.1443         15.8333          0.5743
 6.1640         14.1042          0.5421
 6.1837         11.8125          0.4961
 6.2034         10.4792          0.4672
 6.2231          9.5208          0.4454
 6.2427          9.1875          0.4375
 6.2624          8.2292          0.4141
 6.2821          8.2917          0.4156
 6.3018          6.6667          0.3727
 6.3215          7.7708          0.4024
 6.3412          7.1458          0.3858
 6.3609          6.8958          0.3790
 6.3806          6.8958          0.3790
 6.4003          6.3333          0.3632
 6.4200          6.6458          0.3721
 6.4397          6.7917          0.3762
 6.4594          6.8125          0.3767
 6.4791          6.4167          0.3656
 6.4988          6.0000          0.3536
 6.5185          5.5962          0.3281
 6.5382          5.4038          0.3224
 6.5579          6.3462          0.3493
 6.5776          6.3846          0.3504
 6.5973          6.0577          0.3413
 6.6170          6.2115          0.3456
 6.6367          5.6154          0.3286
 6.6564          6.1154          0.3429
 6.6760          6.6346          0.3572
 6.6957          6.3654          0.3499
 6.7154          6.5192          0.3541
 6.7351          6.2500          0.3467
 6.7548          6.5192          0.3541
 6.7745          6.4821          0.3402
 6.7942          6.8393          0.3495
 6.8139          6.1964          0.3326
 6.8336          7.4107          0.3638
 6.8533          7.4464          0.3647
 6.8730          7.9107          0.3758
 6.8927          7.7679          0.3724
 6.9124          8.8929          0.3985
 6.9321          8.6607          0.3933
 6.9518          9.3214          0.4080
 6.9715          9.4464          0.4107
 6.9912          9.9286          0.4211
 7.0109         10.7321          0.4378
 7.0306         11.7679          0.4584
 7.0503         12.2500          0.4677
 7.0700         13.1607          0.4848
 7.0897         14.3929          0.5070
 7.1093         15.4464          0.5252
 7.1290         16.3214          0.5399
 7.1487         17.7321          0.5627
 7.1684         19.8393          0.5952
 7.1881         21.8036          0.6240
 7.2078         22.6964          0.6366
 7.2275         23.6964          0.6505
 7.2472         26.8214          0.6921
 7.2669         31.6250          0.7515
 7.2866         33.7500          0.7763
 7.3063         37.7857          0.8214
 7.3260         42.1071          0.8671
 7.3457         48.7857          0.9334
 7.3654         53.5893          0.9782
 7.3851         60.9107          1.0429
 7.4048         70.3036          1.1205
 7.4245         82.6964          1.2152
 7.4442         97.0536          1.3165
 7.4639        116.5714          1.4428
 7.4836        137.8929          1.5692
 7.5033        155.6786          1.6673
 7.5230        150.5536          1.6397
 7.5426        125.4286          1.4966
 7.5623         86.3036          1.2414
 7.5820         52.4643          0.9679
 7.6017         33.4500          0.7467
 7.6214         21.5167          0.5988
 7.6411         15.1667          0.5028
 7.6608         13.0500          0.4664
 7.6805         10.0333          0.4089
 7.7002          9.3000          0.3937
 7.7199          7.9167          0.3632
 7.7396          6.8167          0.3371
 7.7593          6.3333          0.3249
 7.7790          6.4000          0.3266
 7.7987          6.0167          0.3167
 7.8184          5.4833          0.3023
 7.8381          5.2333          0.2953
 7.8578          5.6167          0.3060
 7.8775          4.8667          0.2848
 7.8972          5.1719          0.2843
 7.9169          5.2344          0.2860
 7.9366          4.6250          0.2688
 7.9563          5.0156          0.2799
 7.9759          4.6563          0.2697
 7.9956          4.1250          0.2539
 8.0153          4.4375          0.2633
 8.0350          4.5313          0.2661
 8.0547          4.1094          0.2534
 8.0744          4.2656          0.2582
 8.0941          4.3594          0.2610
 8.1138          3.9844          0.2495
 8.1335          4.4219          0.2629
 8.1532          3.7813          0.2431
 8.1729          3.9375          0.2480
 8.1926          3.5938          0.2370
 8.2123          3.7031          0.2405
 8.2320          4.0625          0.2519
 8.2517          4.0625          0.2519
 8.2714          3.7188          0.2411
 8.2911          4.3594          0.2610
 8.3108          3.9531          0.2485
 8.3305          4.3594          0.2610
 8.3502          4.3594          0.2610
 8.3699          4.6250          0.2688
 8.3896          4.3750          0.2615
 8.4093          4.6250          0.2688
 8.4289          5.2031          0.2851
 8.4486          5.1719          0.2843
 8.4683          4.7344          0.2720
 8.4880          5.0000          0.2795
 8.5077          5.2969          0.2877
 8.5274          5.3906          0.2902
 8.5471          5.8594          0.3026
 8.5668          6.7969          0.3259
 8.5865          6.7813          0.3255
 8.6062          6.1406          0.3098
 8.6259          7.1406          0.3340
 8.6456          7.0781          0.3326
 8.6653          8.4063          0.3624
 8.6850          9.3824          0.3715
 8.7047          9.1176          0.3662
 8.7244         10.4412          0.3919
 8.7441         11.7500          0.4157
 8.7638         12.3971          0.4270
 8.7835         13.6765          0.4485
 8.8032         13.5441          0.4463
 8.8229         16.2941          0.4895
 8.8426         17.2794          0.5041
 8.8622         19.3676          0.5337
 8.8819         21.9706          0.5684
 8.9016         24.2647          0.5974
 8.9213         28.0294          0.6420
 8.9410         34.4412          0.7117
 8.9607         39.8824          0.7658
 8.9804         46.2206          0.8244
 9.0001         54.1471          0.8923
 9.0198         62.1944          0.9294
 9.0395         60.4722          0.9165
 9.0592         52.7778          0.8562
 9.0789         38.4028          0.7303
 9.0986         26.5556          0.6073
 9.1183         16.3472          0.4765
 9.1380         11.4583          0.3989
 9.1577          8.2500          0.3385
 9.1774          7.2778          0.3179
 9.1971          6.4167          0.2985
 9.2168          5.2083          0.2690
 9.2365          5.4167          0.2743
 9.2562          4.4583          0.2488
 9.2759          4.2500          0.2430
 9.2955          4.2361          0.2426
 9.3152          4.5833          0.2523
 9.3349          3.8333          0.2307
 9.3546          3.5694          0.2227
 9.3743          3.5000          0.2205
 9.3940          3.9028          0.2328
 9.4137          3.4861          0.2200
 9.4334          3.6111          0.2240
 9.4531          3.4306          0.2183
 9.4728          3.5139          0.2209
 9.4925          3.1528          0.2093
 9.5122          3.2500          0.2125
 9.5319          3.5278          0.2214
 9.5516          3.3889          0.2170
 9.5713          3.6250          0.2244
 9.5910          3.4306          0.2183
 9.6107          3.1944          0.2106
 9.6304          3.1667          0.2097
 9.6501          3.3194          0.2147
 9.6698          2.9444          0.2022
 9.6895          3.5417          0.2218
 9.7092          3.5694          0.2227
 9.7288          3.4861          0.2200
 9.7485          3.1528          0.2093
 9.7682          3.1974          0.2051
 9.7879          3.1184          0.2026
 9.8076          2.9868          0.1982
 9.8273          3.6842          0.2202
 9.8470          3.1447          0.2034
 9.8667          3.2895          0.2080
 9.8864          3.7237          0.2214
 9.9061          3.4211          0.2122
 9.9258          3.5132          0.2150
 9.9455          3.7632          0.2225
 9.9652          4.0000          0.2294
 9.9849          3.9211          0.2271
10.0046          4.0658          0.2313
10.0243          4.4079          0.2408
10.0440          4.5000          0.2433
10.0637          5.1447          0.2602
10.0834          5.1579          0.2605
10.1031          5.3026          0.2641
10.1228          5.8158          0.2766
10.1425          5.7750          0.2687
10.1621          6.4625          0.2842
10.1818          6.8750          0.2932
10.2015          7.3750          0.3036
10.2212          8.1250          0.3187
10.2409          8.4125          0.3243
10.2606          9.8250          0.3504
10.2803          9.8375          0.3507
10.3000         10.8375          0.3681
10.3197         12.3625          0.3931
10.3394         13.6375          0.4129
10.3591         15.4625          0.4396
10.3788         17.4375          0.4669
10.3985         19.2750          0.4909
10.4182         22.7875          0.5337
10.4379         24.7625          0.5564
10.4576         30.4750          0.6172
10.4773         35.9875          0.6707
10.4970         42.0875          0.7253
10.5167         50.1750          0.7920
10.5364         55.6625          0.8341
10.5561         54.1375          0.8226
10.5758         45.5750          0.7548
10.5954         33.8125          0.6501
10.6151         23.1750          0.5382
10.6348         14.4125          0.4244
10.6545         10.1375          0.3560
10.6742          7.0500          0.2969
10.6939          5.6000          0.2646
10.7136          5.1000          0.2525
10.7333          4.8625          0.2465
10.7530          4.2875          0.2315
10.7727          3.8375          0.2190
10.7924          3.9750          0.2229
10.8121          3.6125          0.2125
10.8318          3.4375          0.2073
10.8515          3.0952          0.1920
10.8712          3.1429          0.1934
10.8909          3.2024          0.1953
10.9106          2.8333          0.1837
10.9303          3.3214          0.1988
10.9500          3.2857          0.1978
10.9697          2.5476          0.1742
10.9894          2.9048          0.1860
11.0091          2.5476          0.1742
11.0287          3.0000          0.1890
11.0484          2.8810          0.1852
11.0681          2.7976          0.1825
11.0878          2.9524          0.1875
11.1075          2.6905          0.1790
11.1272          2.8929          0.1856
11.1469          2.3214          0.1662
11.1666          2.8095          0.1829
11.1863          2.4405          0.1705
11.2060          2.5119          0.1729
11.2257          2.3929          0.1688
11.2454          2.7500          0.1809
11.2651          2.5682          0.1708
11.2848          2.2386          0.1595
11.3045          2.7727          0.1775
11.3242          2.5000          0.1685
11.3439          2.4773          0.1678
11.3636          2.2500          0.1599
11.3833          2.3977          0.1651
11.4030          2.6705          0.1742
11.4227          2.5795          0.1712
11.4424          2.6591          0.1738
11.4620          2.6932          0.1749
11.4817          2.7159          0.1757
11.5014          2.5455          0.1701
11.5211          2.8295          0.1793
11.5408          2.8750          0.1807
11.5605          2.8182          0.1790
11.5802          2.7386          0.1764
11.5999          3.0568          0.1864
11.6196          3.3864          0.1962
11.6393          3.3295          0.1945
11.6590          3.8977          0.2105
11.6787          3.0795          0.1871
11.6984          3.3636          0.1955
11.7181          3.9432          0.2117
11.7378          3.7614          0.2067
11.7575          4.1250          0.2165
11.7772          4.3068          0.2212
11.7969          4.7273          0.2318
11.8166          5.3068          0.2456
11.8363          5.4773          0.2495
11.8560          5.8409          0.2576
11.8757          6.2955          0.2675
11.8953          7.7727          0.2972
11.9150          7.5227          0.2924
11.9347          8.7717          0.3088
11.9544          9.5652          0.3224
11.9741         11.3261          0.3509
11.9938         13.6522          0.3852
12.0135         15.2391          0.4070
12.0332         18.8043          0.4521
12.0529         19.9348          0.4655
12.0726         20.0870          0.4673
12.0923         17.0652          0.4307
12.1120         14.1522          0.3922
12.1317         10.1522          0.3322
12.1514          7.5435          0.2863
12.1711          5.9348          0.2540
12.1908          4.3696          0.2179
12.2105          3.5761          0.1972
12.2302          3.3587          0.1911
12.2499          3.0435          0.1819
12.2696          3.1304          0.1845
12.2893          2.5543          0.1666
12.3090          2.6739          0.1705
12.3286          2.3587          0.1601
12.3483          2.4457          0.1630
12.3680          2.5978          0.1680
12.3877          2.7292          0.1686
12.4074          2.3438          0.1563
12.4271          2.6875          0.1673
12.4468          2.4063          0.1583
12.4665          2.2396          0.1527
12.4862          2.3854          0.1576
12.5059          2.5833          0.1640
12.5256          2.6667          0.1667
12.5453          2.6250          0.1654
12.5650          2.5104          0.1617
12.5847          2.5521          0.1630
12.6044          2.3750          0.1573
12.6241          2.4063          0.1583
12.6438          2.1563          0.1499
12.6635          2.5729          0.1637
12.6832          2.4167          0.1587
12.7029          2.2292          0.1524
12.7226          2.3125          0.1552
12.7423          2.4375          0.1593
12.7619          2.2292          0.1524
12.7816          2.3125          0.1552
12.8013          2.3333          0.1559
12.8210          2.2813          0.1542
12.8407          2.2813          0.1542
12.8604          2.1563          0.1499
12.8801          2.4375          0.1593
12.8998          2.3958          0.1580
12.9195          2.3021          0.1549
12.9392          2.0833          0.1473
12.9589          2.1875          0.1510
12.9786          2.3854          0.1576
12.9983          2.6563          0.1663
13.0180          2.4900          0.1578
13.0377          2.0800          0.1442
13.0574          2.3800          0.1543
13.0771          2.5600          0.1600
13.0968          2.6500          0.1628
13.1165          2.6000          0.1612
13.1362          2.5100          0.1584
13.1559          2.7200          0.1649
13.1756          2.6500          0.1628
13.1952          3.0200          0.1738
13.2149          3.1700          0.1780
13.2346          3.1900          0.1786
13.2543          3.4000          0.1844
13.2740          3.8000          0.1949
13.2937          3.7800          0.1944
13.3134          3.7400          0.1934
13.3331          4.2300          0.2057
13.3528          4.8900          0.2211
13.3725          5.3700          0.2317
13.3922          5.3300          0.2309
13.4119          5.9600          0.2441
13.4316          7.4600          0.2731
13.4513          7.7200          0.2778
13.4710          8.8900          0.2982
13.4907         10.0900          0.3176
13.5104         11.9615          0.3391
13.5301         13.6827          0.3627
13.5498         16.5096          0.3984
13.5695         17.5769          0.4111
13.5892         17.8750          0.4146
13.6089         16.1538          0.3941
13.6285         13.1058          0.3550
13.6482         10.4038          0.3163
13.6679          7.6635          0.2715
13.6876          5.0000          0.2193
13.7073          4.0000          0.1961
13.7270          3.5865          0.1857
13.7467          3.0288          0.1707
13.7664          2.8269          0.1649
13.7861          2.5481          0.1565
13.8058          2.5096          0.1553
13.8255          2.3269          0.1496
13.8452          2.2692          0.1477
13.8649          2.4231          0.1526
13.8846          1.9135          0.1356
13.9043          2.2212          0.1461
13.9240          2.1923          0.1452
13.9437          2.2212          0.1461
13.9634          2.4135          0.1523
13.9831          2.1250          0.1429
14.0028          1.9904          0.1383
14.0225          2.1250          0.1429
14.0422          2.0481          0.1403
14.0618          2.4038          0.1520
14.0815          2.2596          0.1474
14.1012          2.1250          0.1429
14.1209          1.9722          0.1351
14.1406          2.1389          0.1407
14.1603          1.8889          0.1322
14.1800          1.9537          0.1345
14.1997          1.9444          0.1342
14.2194          1.9444          0.1342
14.2391          2.0926          0.1392
14.2588          1.8981          0.1326
14.2785          1.8704          0.1316
14.2982          2.0833          0.1389
14.3179          1.8519          0.1309
14.3376          1.8426          0.1306
14.3573          2.0833          0.1389
14.3770          1.8056          0.1293
14.3967          1.8981          0.1326
14.4164          1.9722          0.1351
14.4361          2.0463          0.1376
14.4558          1.8889          0.1322
14.4755          1.9537          0.1345
14.4951          1.9907          0.1358
14.5148          2.0093          0.1364
14.5345          2.0741          0.1386
14.5542          1.9722          0.1351
14.5739          1.8981          0.1326
14.5936          2.0278          0.1370
14.6133          1.8796          0.1319
14.6330          2.0185          0.1367
14.6527          1.8929          0.1300
14.6724          2.1250          0.1377
14.6921          2.0446          0.1351
14.7118          2.1964          0.1400
14.7315          1.9821          0.1330
14.7512          1.9821          0.1330
14.7709          2.1964          0.1400
14.7906          2.2768          0.1426
14.8103          2.2768          0.1426
14.8300          2.6250          0.1531
14.8497          2.4018          0.1464
14.8694          2.6250          0.1531
14.8891          2.4286          0.1473
14.9088          2.7589          0.1569
14.9284          2.9196          0.1615
14.9481          3.2589          0.1706
14.9678          3.3393          0.1727
14.9875          3.5000          0.1768
15.0072          4.0804          0.1909
15.0269          4.5179          0.2008
15.0466          4.9464          0.2102
15.0663          5.5982          0.2236
15.0860          6.1786          0.2349
15.1057          6.3571          0.2382
15.1254          5.6696          0.2250
15.1451          5.1964          0.2154
15.1648          4.6161          0.2030
15.1845          3.5804          0.1788
15.2042          2.9138          0.1585
15.2239          2.6552          0.1513
15.2436          2.2500          0.1393
15.2633          1.9914          0.1310
15.2830          1.9224          0.1287
15.3027          2.0259          0.1322
15.3224          2.0431          0.1327
15.3421          1.9569          0.1299
15.3617          1.9828          0.1307
15.3814          1.7586          0.1231
15.4011          2.0000          0.1313
15.4208          1.6121          0.1179
15.4405          1.7414          0.1225
15.4602          1.7845          0.1240
15.4799          1.6638          0.1198
15.4996          1.6379          0.1188
15.5193          1.7845          0.1240
15.5390          1.6724          0.1201
15.5587          1.6810          0.1204
15.5784          1.7069          0.1213
15.5981          1.8448          0.1261
15.6178          1.6897          0.1207
15.6375          1.8190          0.1252
15.6572          1.8879          0.1276
15.6769          1.7672          0.1234
15.6966          1.5000          0.1137
15.7163          1.8190          0.1252
15.7360          1.7414          0.1225
15.7557          1.8017          0.1246
15.7754          1.9750          0.1283
15.7950          1.9833          0.1286
15.8147          1.6917          0.1187
15.8344          1.8583          0.1244
15.8541          1.9917          0.1288
15.8738          1.6833          0.1184
15.8935          1.7333          0.1202
15.9132          1.6500          0.1173
15.9329          1.6167          0.1161
15.9526          1.7000          0.1190
15.9723          1.4417          0.1096
15.9920          1.7000          0.1190
16.0117          1.7833          0.1219
16.0314          1.8000          0.1225
16.0511          1.8083          0.1228
16.0708          1.9417          0.1272
16.0905          1.9250          0.1267
16.1102          1.7083          0.1193
16.1299          1.7750          0.1216
16.1496          1.7417          0.1205
16.1693          1.8583          0.1244
16.1890          1.8250          0.1233
16.2087          1.7833          0.1219
16.2283          1.9833          0.1286
16.2480          1.8417          0.1239
16.2677          1.8083          0.1228
16.2874          1.7984          0.1204
16.3071          1.8790          0.1231
16.3268          1.9839          0.1265
16.3465          1.9194          0.1244
16.3662          1.9919          0.1267
16.3859          1.9677          0.1260
16.4056          2.2177          0.1337
16.4253          2.2419          0.1345
16.4450          2.4435          0.1404
16.4647          2.8710          0.1522
16.4844          2.9758          0.1549
16.5041          3.2419          0.1617
16.5238          3.5726          0.1697
16.5435          3.7016          0.1728
16.5632          4.2581          0.1853
16.5829          4.8871          0.1985
16.6026          5.6855          0.2141
16.6223          6.0565          0.2210
16.6420          6.1371          0.2225
16.6616          6.0081          0.2201
16.6813          4.8145          0.1970
16.7010          3.8306          0.1758
16.7207          2.9597          0.1545
16.7404          2.6855          0.1472
16.7601          2.2500          0.1347
16.7798          1.9839          0.1265
16.7995          1.7661          0.1193
16.8192          1.7661          0.1193
16.8389          1.7339          0.1182
16.8586          1.6371          0.1149
16.8783          1.9032          0.1239
16.8980          1.7578          0.1172
16.9177          1.6484          0.1135
16.9374          1.5781          0.1110
16.9571          1.6328          0.1129
16.9768          1.7031          0.1154
16.9965          1.5313          0.1094
17.0162          1.3984          0.1045
17.0359          1.5391          0.1097
17.0556          1.7813          0.1180
17.0753          1.6563          0.1138
17.0949          1.5781          0.1110
17.1146          1.5781          0.1110
17.1343          1.4609          0.1068
17.1540          1.6797          0.1146
17.1737          1.5703          0.1108
17.1934          1.4141          0.1051
17.2131          1.3750          0.1036
17.2328          1.6484          0.1135
17.2525          1.3359          0.1022
17.2722          1.3672          0.1033
17.2919          1.5547          0.1102
17.3116          1.5859          0.1113
17.3313          1.5703          0.1108
17.3510          1.2656          0.0994
17.3707          1.5303          0.1077
17.3904          1.3030          0.0994
17.4101          1.4091          0.1033
17.4298          1.6742          0.1126
17.4495          1.5152          0.1071
17.4692          1.4621          0.1052
17.4889          1.4242          0.1039
17.5086          1.5000          0.1066
17.5282          1.6591          0.1121
17.5479          1.2197          0.0961
17.5676          1.5985          0.1100
17.5873          1.4394          0.1044
17.6070          1.3485          0.1011
17.6267          1.3636          0.1016
17.6464          1.4924          0.1063
17.6661          1.5985          0.1100
17.6858          1.3485          0.1011
17.7055          1.7348          0.1146
17.7252          1.5833          0.1095
17.7449          1.5455          0.1082
17.7646          1.4545          0.1050
17.7843          1.4318          0.1041
17.8040          1.5076          0.1069
17.8237          1.5530          0.1085
17.8434          1.4545          0.1050
17.8631          1.3788          0.1022
17.8828          1.5758          0.1093
17.9025          1.5606          0.1087
17.9222          1.5606          0.1087
17.9419          1.6591          0.1121
17.9615          1.6288          0.1111
17.9812          1.7273          0.1144
18.0009          1.9015          0.1200
18.0206          1.6765          0.1110
18.0403          1.7206          0.1125
18.0600          1.9412          0.1195
18.0797          1.9191          0.1188
18.0994          2.0221          0.1219
18.1191          2.2353          0.1282
18.1388          2.0956          0.1241
18.1585          2.5515          0.1370
18.1782          2.2500          0.1286
18.1979          2.2794          0.1295
18.2176          1.9338          0.1192
18.2373          1.8897          0.1179
18.2570          1.5294          0.1060
18.2767          1.5588          0.1071
18.2964          1.6618          0.1105
18.3161          1.5662          0.1073
18.3358          1.4265          0.1024
18.3555          1.2206          0.0947
18.3752          1.6397          0.1098
18.3948          1.4412          0.1029
18.4145          1.3529          0.0997
18.4342          1.2206          0.0947
18.4539          1.4429          0.1015
18.4736          1.4071          0.1003
18.4933          1.3929          0.0997
18.5130          1.3500          0.0982
18.5327          1.5857          0.1064
18.5524          1.5214          0.1042
18.5721          1.4071          0.1003
18.5918          1.2857          0.0958
18.6115          1.3857          0.0995
18.6312          1.3214          0.0972
18.6509          1.4000          0.1000
18.6706          1.4714          0.1025
18.6903          1.5643          0.1057
18.7100          1.4786          0.1028
18.7297          1.6286          0.1079
18.7494          1.4000          0.1000
18.7691          1.3000          0.0964
18.7888          1.4571          0.1020
18.8085          1.2786          0.0956
18.8281          1.4429          0.1015
18.8478          1.5786          0.1062
18.8675          1.4643          0.1023
18.8872          1.4357          0.1013
18.9069          1.3786          0.0992
18.9266          1.6071          0.1071
18.9463          1.5357          0.1047
18.9660          1.7643          0.1123
18.9857          1.7357          0.1113
19.0054          1.5786          0.1062
19.0251          1.7714          0.1125
19.0448          1.8571          0.1152
19.0645          1.7286          0.1111
19.0842          2.0286          0.1204
19.1039          2.4429          0.1321
19.1236          2.4429          0.1321
19.1433          2.6736          0.1363
19.1630          3.2222          0.1496
19.1827          3.3542          0.1526
19.2024          3.7431          0.1612
19.2221          3.8681          0.1639
19.2418          3.8403          0.1633
19.2614          3.6042          0.1582
19.2811          3.0347          0.1452
19.3008          3.0486          0.1455
19.3205          3.2361          0.1499
19.3402          3.1111          0.1470
19.3599          3.1111          0.1470
19.3796          2.9653          0.1435
19.3993          3.3056          0.1515
19.4190          3.3333          0.1521
19.4387          3.4167          0.1540
19.4584          3.5278          0.1565
19.4781          3.7778          0.1620
19.4978          3.6806          0.1599
19.5175          3.4722          0.1553
19.5372          2.8514          0.1388
19.5569          2.6959          0.1350
19.5766          2.7703          0.1368
19.5963          2.2432          0.1231
19.6160          2.3716          0.1266
19.6357          2.4257          0.1280
19.6554          2.2770          0.1240
19.6751          2.6959          0.1350
19.6947          2.5811          0.1321
19.7144          2.6149          0.1329
19.7341          2.6284          0.1333
19.7538          2.2230          0.1226
19.7735          1.8446          0.1116
19.7932          1.8784          0.1127
19.8129          1.7973          0.1102
19.8326          1.5270          0.1016
19.8523          1.5068          0.1009
19.8720          1.3784          0.0965
19.8917          1.5135          0.1011
19.9114          1.4865          0.1002
19.9311          1.3919          0.0970
19.9508          1.3784          0.0965
19.9705          1.4257          0.0981
19.9902          1.4797          0.1000
