  1.9998     104  1.4142
  2.0401     102       1
  2.0797   102.5   1.118
  2.1197     102       1
  2.1604   102.5   1.118
  2.2003   100.5     0.5
  2.2403     102       1
  2.2806     102       1
  2.3198     101  0.7071
  2.3602     102       1
  2.3998     103  1.2247
  2.4401     101  0.7071
    2.48   100.5     0.5
    2.52   103.5  1.3229
  2.5603   100.5     0.5
  2.5999     104  1.4142
  2.6402     102       1
  2.6802     103  1.2247
  2.7198     103  1.2247
  2.7605   100.5     0.5
  2.8001     101  0.7071
    2.84   101.5   0.866
  2.8807   101.5   0.866
  2.9203   100.5     0.5
  2.9603   102.5   1.118
  2.9999     103  1.2247
  3.0402   102.5   1.118
  3.0802   102.5   1.118
  3.1198     103  1.2247
  3.1601     102       1
  3.1997     101  0.7071
  3.2404   102.5   1.118
  3.2807   101.5   0.866
  3.3199   105.5  1.6583
  3.3602     103  1.2247
  3.3998   101.5   0.866
  3.4402   101.5   0.866
  3.4805   105.5  1.6583
  3.5197     101  0.7071
    3.56   102.5   1.118
  3.6004     101  0.7071
  3.6403     103  1.2247
  3.6803   102.5   1.118
  3.7199   101.5   0.866
  3.7602     104  1.4142
  3.8002   101.5   0.866
  3.8401     104  1.4142
  3.8804   101.5   0.866
  3.9197   102.5   1.118
  3.9604     103  1.2247
       4   102.5   1.118
  4.0403   101.5   0.866
  4.0802   101.5   0.866
  4.1198     101  0.7071
  4.1602   100.5     0.5
  4.2001     103  1.2247
  4.2401   101.5   0.866
    4.28     102       1
    4.32   100.5     0.5
  4.3607     105  1.5811
  4.4003     103  1.2247
  4.4402     103  1.2247
  4.4802   104.5     1.5
  4.5198     104  1.4142
  4.5601   101.5   0.866
  4.6001     102       1
    4.64     102       1
  4.6807   102.5   1.118
    4.72   102.5   1.118
  4.7603     102       1
  4.8002     103  1.2247
  4.8402     102       1
  4.8802     103  1.2247
  4.9198   101.5   0.866
  4.9601   102.5   1.118
       5   102.5   1.118
  5.0404     101  0.7071
  5.0807   101.5   0.866
  5.1199     102       1
  5.1606     101  0.7071
  5.2002     103  1.2247
  5.2402   104.5     1.5
  5.2801     101  0.7071
  5.3197     102       1
    5.36     102       1
  5.4004   101.5   0.866
  5.4403   100.5     0.5
  5.4803   101.5   0.866
  5.5199     103  1.2247
  5.5602   101.5   0.866
  5.6002     101  0.7071
  5.6401   102.5   1.118
  5.6801   101.5   0.866
  5.7197     102       1
  5.7607   103.5  1.3229
     5.8     100     0.5
  5.8403   100.5     0.5
  5.8806     102       1
  5.9198     100     0.5
  5.9602     102       1
  6.0001   101.5   0.866
  6.0401     104  1.4142
    6.08     101  0.7071
    6.12     101  0.7071
  6.1603   102.5   1.118
  6.2003   102.5   1.118
  6.2402   103.5  1.3229
  6.2802   102.5   1.118
  6.3198   102.5   1.118
  6.3601   104.5     1.5
  6.3997     101  0.7071
    6.44   103.5  1.3229
  6.4804     100     0.5
    6.52     103  1.2247
  6.5606     100     0.5
  6.5999     103  1.2247
  6.6402     100     0.5
  6.6802     101  0.7071
  6.7198   103.5  1.3229
  6.7604   102.5   1.118
  6.7997   100.5     0.5
  6.8404     101  0.7071
  6.8807     101  0.7071
  6.9199     103  1.2247
  6.9602   101.5   0.866
  7.0002     101  0.7071
  7.0402   103.5  1.3229
  7.0805     101  0.7071
  7.1197   101.5   0.866
  7.1604   102.5   1.118
  7.2004   101.5   0.866
  7.2403     101  0.7071
  7.2799   101.5   0.866
  7.3199     101  0.7071
  7.3602     101  0.7071
  7.4002     100     0.5
  7.4401     102       1
  7.4804   101.5   0.866
  7.5197     101  0.7071
  7.5607   102.5   1.118
     7.6   102.5   1.118
  7.6403   101.5   0.866
  7.6806     101  0.7071
  7.7198   100.5     0.5
  7.7605     103  1.2247
  7.7998     102       1
  7.8401   100.5     0.5
    7.88   100.5     0.5
    7.92     101  0.7071
  7.9607     103  1.2247
  8.0003     102       1
  8.0402   101.5   0.866
  8.0802   102.5   1.118
  8.1198   100.5     0.5
  8.1605     102       1
  8.1997     101  0.7071
    8.24   102.5   1.118
  8.2804   101.5   0.866
    8.32   102.5   1.118
  8.3606     101  0.7071
  8.4002   102.5   1.118
  8.4402   102.5   1.118
  8.4805     100     0.5
  8.5198     101  0.7071
  8.5601     101  0.7071
  8.5997   101.5   0.866
  8.6404     102       1
  8.6803   101.5   0.866
  8.7199   102.5   1.118
  8.7602   101.5   0.866
  8.7998     101  0.7071
  8.8402     102       1
  8.8801     100     0.5
  8.9197     101  0.7071
    8.96   100.5     0.5
  9.0004     100     0.5
    9.04   101.5   0.866
  9.0799     101  0.7071
  9.1199     102       1
  9.1602     101  0.7071
  9.1998   101.5   0.866
  9.2401     101  0.7071
  9.2801     101  0.7071
  9.3197   101.5   0.866
  9.3604   100.5     0.5
     9.4     103  1.2247
  9.4403   100.5     0.5
  9.4802   100.5     0.5
  9.5198   101.5   0.866
  9.5605   100.5     0.5
  9.6001     101  0.7071
  9.6401   100.5     0.5
    9.68     101  0.7071
    9.72   101.5   0.866
  9.7603     102       1
  9.8003   101.5   0.866
  9.8402   101.5   0.866
  9.8802     101  0.7071
  9.9198   100.5     0.5
  9.9601   100.5     0.5
 10.0001     101  0.7071
   10.04     101  0.7071
 10.0807     101  0.7071
   10.12   100.5     0.5
 10.1606     100     0.5
 10.2002     102       1
 10.2402   100.5     0.5
 10.2802   100.5     0.5
 10.3198   100.5     0.5
 10.3604     101  0.7071
    10.4     100     0.5
 10.4404   100.5     0.5
 10.4807   100.5     0.5
 10.5199     100     0.5
 10.5606   100.5     0.5
 10.6002     100     0.5
 10.6402     101  0.7071
 10.6801   102.5   1.118
 10.7197   100.5     0.5
 10.7604   100.5     0.5
    10.8   100.5     0.5
   10.84   100.5     0.5
 10.8806     101  0.7071
 10.9199     100     0.5
 10.9606     103  1.2247
 11.0002   102.5   1.118
 11.0401     103  1.2247
 11.0801   102.5   1.118
 11.1197     104  1.4142
 11.1604     105  1.5811
 11.2003   108.5  2.0616
 11.2403     109  2.1213
 11.2802     112  2.4495
 11.3198   124.5     3.5
 11.3602   119.5  3.1225
 11.4001     123  3.3912
 11.4401   135.5  4.2131
   11.48   148.5  4.9244
   11.52   180.5  6.3443
 11.5603     223  7.8422
 11.5999   332.5 10.7819
 11.6402     359 11.3798
 11.6806     175  6.1237
 11.7198   108.5  2.0616
 11.7605   105.5  1.6583
 11.8001     103  1.2247
   11.84   102.5   1.118
 11.8804   103.5  1.3229
   11.92   102.5   1.118
 11.9603     102       1
 11.9999     101  0.7071
 12.0402   102.5   1.118
 12.0802     100     0.5
 12.1198     100     0.5
 12.1601     100     0.5
    12.2     101  0.7071
 12.2404   101.5   0.866
 12.2803   101.5   0.866
 12.3199   100.5     0.5
 12.3602   101.5   0.866
 12.4002     102       1
 12.4402     101  0.7071
 12.4805   100.5     0.5
 12.5197   100.5     0.5
   12.56   100.5     0.5
    12.6   100.5     0.5
 12.6403     101  0.7071
 12.6803   102.5   1.118
 12.7202     101  0.7071
 12.7606   100.5     0.5
 12.8002   101.5   0.866
 12.8401     101  0.7071
 12.8797     100     0.5
 12.9197   100.5     0.5
 12.9604   100.5     0.5
 13.0003   100.5     0.5
 13.0403     100     0.5
 13.0802   100.5     0.5
 13.1198   100.5     0.5
 13.1605     101  0.7071
 13.2001   100.5     0.5
 13.2397   100.5     0.5
   13.28   100.5     0.5
   13.32   100.5     0.5
 13.3603   100.5     0.5
 13.4003   100.5     0.5
 13.4402     100     0.5
 13.4802     101  0.7071
 13.5198     101  0.7071
 13.5601     100     0.5
 13.6001     100     0.5
   13.64     100     0.5
 13.6804     100     0.5
   13.72     101  0.7071
 13.7603   100.5     0.5
 13.7999     100     0.5
 13.8402   100.5     0.5
 13.8802   100.5     0.5
 13.9198   101.5   0.866
 13.9601   101.5   0.866
 13.9997     101  0.7071
 14.0404     101  0.7071
 14.0807     102       1
 14.1199     100     0.5
 14.1602   101.5   0.866
 14.1998   100.5     0.5
 14.2402     100     0.5
 14.2805     100     0.5
 14.3197   101.5   0.866
   14.36     101  0.7071
    14.4   100.5     0.5
 14.4403     100     0.5
 14.4806     100     0.5
 14.5199   100.5     0.5
 14.5602     101  0.7071
 14.6002     101  0.7071
 14.6401     100     0.5
 14.6801   100.5     0.5
 14.7197     101  0.7071
 14.7604     100     0.5
    14.8   100.5     0.5
 14.8403   101.5   0.866
 14.8802   100.5     0.5
 14.9198     101  0.7071
 14.9605     100     0.5
 15.0001   101.5   0.866
 15.0401   100.5     0.5
 15.0804   100.5     0.5
   15.12     101  0.7071
 15.1603   100.5     0.5
 15.2003     100     0.5
 15.2402   100.5     0.5
 15.2806   101.5   0.866
 15.3198   100.5     0.5
 15.3605   100.5     0.5
 15.3997     101  0.7071
   15.44     100     0.5
 15.4807   101.5   0.866
   15.52     101  0.7071
 15.5603   100.5     0.5
 15.5999     100     0.5
 15.6402   100.5     0.5
 15.6805     100     0.5
 15.7198     100     0.5
 15.7601     101  0.7071
    15.8   100.5     0.5
 15.8404   100.5     0.5
 15.8803     102       1
 15.9199   100.5     0.5
 15.9602   100.5     0.5
 15.9998     103  1.2247
 16.0402   101.5   0.866
 16.0801     100     0.5
 16.1197   100.5     0.5
 16.1604     100     0.5
    16.2   101.5   0.866
   16.24   100.5     0.5
 16.2799   100.5     0.5
 16.3199   100.5     0.5
 16.3606   100.5     0.5
 16.4002     101  0.7071
 16.4401     100     0.5
 16.4801   100.5     0.5
 16.5197   101.5   0.866
 16.5607   100.5     0.5
    16.6   101.5   0.866
 16.6403     100     0.5
 16.6806   100.5     0.5
 16.7198   100.5     0.5
 16.7602   100.5     0.5
 16.8001     101  0.7071
 16.8401     100     0.5
   16.88     101  0.7071
   16.92     100     0.5
 16.9603     100     0.5
 16.9999     100     0.5
 17.0402     100     0.5
 17.0802     100     0.5
 17.1198     100     0.5
 17.1605     100     0.5
 17.2001     102       1
   17.24     100     0.5
 17.2804     102       1
   17.32     101  0.7071
 17.3606     101  0.7071
 17.3999     101  0.7071
 17.4402   100.5     0.5
 17.4802   100.5     0.5
 17.5198   100.5     0.5
 17.5601   100.5     0.5
 17.5997     100     0.5
 17.6404   100.5     0.5
 17.6803     101  0.7071
 17.7203     101  0.7071
 17.7602     101  0.7071
 17.8002     100     0.5
 17.8402   100.5     0.5
 17.8801     100     0.5
 17.9197   100.5     0.5
 17.9604     100     0.5
 18.0004   100.5     0.5
 18.0403     100     0.5
 18.0803     101  0.7071
 18.1199   100.5     0.5
 18.1606   100.5     0.5
 18.1998     100     0.5
 18.2401     100     0.5
 18.2804   100.5     0.5
 18.3197   100.5     0.5
 18.3604   100.5     0.5
    18.4     100     0.5
 18.4403   100.5     0.5
 18.4802   100.5     0.5
 18.5198   100.5     0.5
 18.5602   100.5     0.5
 18.6001   100.5     0.5
 18.6401   100.5     0.5
   18.68   100.5     0.5
   18.72     100     0.5
 18.7607     101  0.7071
 18.7999     101  0.7071
 18.8402   100.5     0.5
 18.8806     101  0.7071
 18.9198   101.5   0.866
 18.9601   100.5     0.5
 19.0001     100     0.5
   19.04   100.5     0.5
 19.0804     100     0.5
   19.12   100.5     0.5
 19.1606     100     0.5
 19.1999     100     0.5
 19.2402     100     0.5
 19.2805     100     0.5
 19.3198   100.5     0.5
 19.3601     101  0.7071
 19.3997     100     0.5
 19.4404   100.5     0.5
 19.4803     100     0.5
 19.5199     100     0.5
 19.5606   100.5     0.5
 19.5998   101.5   0.866
 19.6402   100.5     0.5
 19.6805   100.5     0.5
 19.7197   100.5     0.5
   19.76   100.5     0.5
 19.8004     101  0.7071
 19.8403     102       1
 19.8803   100.5     0.5
 19.9199     100     0.5
 19.9602   100.5     0.5
 19.9998     101  0.7071
 20.0401     100     0.5
 20.0804   100.5     0.5
 20.1197   100.5     0.5
 20.1604     100     0.5
    20.2     100     0.5
 20.2403     101  0.7071
 20.2806   101.5   0.866
 20.3198     101  0.7071
 20.3602   101.5   0.866
 20.4001   101.5   0.866
 20.4401   103.5  1.3229
   20.48   104.5     1.5
   20.52   104.5     1.5
 20.5603   107.5  1.9365
 20.5999     105  1.5811
 20.6402     115  2.7386
 20.6802     125  3.5355
 20.7198   138.5  4.3875
 20.7601     127  3.6742
 20.7997   119.5  3.1225
   20.84     107  1.8708
 20.8807     105  1.5811
   20.92     101  0.7071
 20.9603   100.5     0.5
 21.0002   101.5   0.866
 21.0402     101  0.7071
 21.0802     100     0.5
 21.1198     100     0.5
 21.1601     101  0.7071
 21.1997     102       1
 21.2404   100.5     0.5
 21.2803   100.5     0.5
 21.3199     101  0.7071
 21.3602     100     0.5
 21.4002   100.5     0.5
 21.4402   101.5   0.866
 21.4801     100     0.5
 21.5197   100.5     0.5
   21.56     100     0.5
 21.6004     101  0.7071
 21.6403     100     0.5
 21.6806   101.5   0.866
 21.7199   101.5   0.866
 21.7602     100     0.5
 21.8002     100     0.5
 21.8401     100     0.5
 21.8804     100     0.5
 21.9197   100.5     0.5
 21.9604     100     0.5
 22.0003     100     0.5
 22.0403   100.5     0.5
 22.0802   100.5     0.5
 22.1198   100.5     0.5
 22.1605     100     0.5
 22.2001     100     0.5
 22.2401   100.5     0.5
   22.28     101  0.7071
   22.32   100.5     0.5
 22.3607   100.5     0.5
 22.3999   100.5     0.5
 22.4402   100.5     0.5
 22.4802     101  0.7071
 22.5198     100     0.5
 22.5601     100     0.5
 22.5997     100     0.5
   22.64     100     0.5
 22.6807   100.5     0.5
   22.72   100.5     0.5
 22.7606   101.5   0.866
 22.8002     100     0.5
 22.8402   101.5   0.866
 22.8798   101.5   0.866
 22.9198   101.5   0.866
 22.9601     102       1
 22.9997     106  1.7321
 23.0404   111.5  2.3979
 23.0803     110  2.2361
 23.1199     104  1.4142
 23.1602     102       1
 23.2002   110.5  2.2913
 23.2402     105  1.5811
 23.2801   111.5  2.3979
 23.3197     119  3.0822
   23.36     149  4.9497
 23.4004     160  5.4772
 23.4403   140.5     4.5
 23.4806     117  2.9155
 23.5199     108       2
 23.5602     102       1
 23.6002     101  0.7071
 23.6398     101  0.7071
 23.6801   101.5   0.866
 23.7197     101  0.7071
 23.7604     100     0.5
    23.8   100.5     0.5
 23.8403     101  0.7071
 23.8802     100     0.5
 23.9198     100     0.5
 23.9602   101.5   0.866
 23.9998   100.5     0.5
 24.0401   100.5     0.5
 24.0804     101  0.7071
   24.12     100     0.5
 24.1603     100     0.5
 24.2003   100.5     0.5
 24.2402     100     0.5
 24.2802   100.5     0.5
 24.3198   100.5     0.5
 24.3601     100     0.5
 24.3997     100     0.5
   24.44     101  0.7071
 24.4807     100     0.5
   24.52   100.5     0.5
 24.5606     100     0.5
 24.6002   101.5   0.866
 24.6402     100     0.5
 24.6802   100.5     0.5
 24.7198     100     0.5
 24.7601     100     0.5
 24.7997     101  0.7071
 24.8404     100     0.5
 24.8807     101  0.7071
 24.9199   100.5     0.5
 24.9599   100.5     0.5
 25.0002     100     0.5
 25.0402   100.5     0.5
 25.0801     101  0.7071
 25.1197     101  0.7071
   25.16     100     0.5
    25.2     100     0.5
   25.24     100     0.5
 25.2806   100.5     0.5
 25.3199     100     0.5
 25.3602     100     0.5
 25.4002     101  0.7071
 25.4401     100     0.5
 25.4804     100     0.5
 25.5197     101  0.7071
 25.5607   100.5     0.5
    25.6     100     0.5
 25.6403     100     0.5
 25.6802   100.5     0.5
 25.7198     100     0.5
 25.7605     102       1
 25.7998     100     0.5
 25.8401     101  0.7071
   25.88   100.5     0.5
   25.92   100.5     0.5
 25.9603     100     0.5
 25.9999     101  0.7071
 26.0402     100     0.5
 26.0798     100     0.5
 26.1198     100     0.5
 26.1605     100     0.5
 26.2001   100.5     0.5
   26.24   101.5   0.866
 26.2804     100     0.5
   26.32     100     0.5
 26.3606     100     0.5
 26.3999   100.5     0.5
 26.4402     100     0.5
 26.4802   100.5     0.5
 26.5198     101  0.7071
 26.5604     100     0.5
 26.5997     100     0.5
 26.6404   100.5     0.5
 26.6803   100.5     0.5
 26.7199     100     0.5
 26.7602     100     0.5
 26.8002     100     0.5
 26.8402     101  0.7071
 26.8798   101.5   0.866
 26.9197     101  0.7071
   26.96   100.5     0.5
      27     101  0.7071
 27.0403   100.5     0.5
 27.0803   101.5   0.866
 27.1199     100     0.5
 27.1606     100     0.5
 27.2002   100.5     0.5
 27.2401   100.5     0.5
 27.2801     100     0.5
 27.3197     101  0.7071
 27.3604     100     0.5
    27.4     100     0.5
 27.4403   101.5   0.866
 27.4806     101  0.7071
 27.5198     100     0.5
 27.5602   100.5     0.5
 27.6001     101  0.7071
 27.6401     100     0.5
 27.6804     100     0.5
   27.72   100.5     0.5
 27.7607     100     0.5
 27.7999   101.5   0.866
 27.8402     100     0.5
 27.8806   101.5   0.866
 27.9198     101  0.7071
 27.9605   100.5     0.5
 28.0001     101  0.7071
   28.04   102.5   1.118
 28.0804     100     0.5
   28.12     100     0.5
 28.1603     103  1.2247
 28.2002   101.5   0.866
 28.2402   100.5     0.5
 28.2802   100.5     0.5
 28.3198     100     0.5
 28.3601     100     0.5
 28.3997     101  0.7071
 28.4404   100.5     0.5
 28.4807     100     0.5
 28.5199     100     0.5
 28.5602   100.5     0.5
 28.6002   101.5   0.866
 28.6402   100.5     0.5
 28.6805     102       1
 28.7197     101  0.7071
   28.76   103.5  1.3229
    28.8     101  0.7071
 28.8403   106.5  1.8028
 28.8803   106.5  1.8028
 28.9199     104  1.4142
 28.9606     108       2
 29.0002     113  2.5495
 29.0401     120  3.1623
 29.0801   134.5  4.1533
 29.1197   141.5  4.5552
 29.1604   137.5  4.3301
 29.2003     134  4.1231
 29.2403   123.5  3.4278
 29.2802     134  4.1231
 29.3202     132       4
 29.3605     175  6.1237
 29.3998   378.5 11.8004
 29.4401   544.5 14.9081
 29.4804     313 10.3199
   29.52   290.5  9.7596
 29.5607   137.5  4.3301
 29.5999   113.5  2.5981
 29.6402     104  1.4142
 29.6806   104.5     1.5
 29.7198     102       1
 29.7605     103  1.2247
 29.7997     102       1
   29.84   100.5     0.5
 29.8804   102.5   1.118
   29.92   101.5   0.866
 29.9606   101.5   0.866
 29.9999     102       1
 30.0402     102       1
 30.0802     101  0.7071
 30.1198     101  0.7071
 30.1601   100.5     0.5
    30.2   100.5     0.5
 30.2404     101  0.7071
 30.2803     100     0.5
 30.3199     100     0.5
 30.3606     101  0.7071
 30.3998     102       1
 30.4402     101  0.7071
 30.4805   100.5     0.5
 30.5197     101  0.7071
   30.56     101  0.7071
    30.6   100.5     0.5
 30.6403   100.5     0.5
 30.6803     101  0.7071
 30.7199   101.5   0.866
 30.7606     101  0.7071
 30.7998     103  1.2247
 30.8401     102       1
 30.8801   103.5  1.3229
 30.9197   103.5  1.3229
 30.9604     104  1.4142
      31     103  1.2247
 31.0403   105.5  1.6583
 31.0802     109  2.1213
 31.1198   113.5  2.5981
 31.1605     113  2.5495
 31.1998   109.5  2.1794
 31.2401     105  1.5811
   31.28     103  1.2247
   31.32   100.5     0.5
 31.3607   100.5     0.5
 31.3999   102.5   1.118
 31.4402   111.5  2.3979
 31.4802   111.5  2.3979
 31.5198     109  2.1213
 31.5601     106  1.7321
 31.5997   101.5   0.866
   31.64   101.5   0.866
 31.6804     101  0.7071
   31.72   101.5   0.866
 31.7603   101.5   0.866
 31.8002   100.5     0.5
 31.8402     101  0.7071
 31.8802     100     0.5
 31.9201     101  0.7071
 31.9601   101.5   0.866
      32     101  0.7071
 32.0404     101  0.7071
 32.0803   103.5  1.3229
 32.1199   102.5   1.118
 32.1606     104  1.4142
 32.1998   102.5   1.118
 32.2402     101  0.7071
 32.2805     100     0.5
 32.3197   100.5     0.5
   32.36     100     0.5
    32.4     101  0.7071
 32.4403     100     0.5
 32.4803     101  0.7071
 32.5199   100.5     0.5
 32.5602   100.5     0.5
 32.5998   100.5     0.5
 32.6401   100.5     0.5
 32.6801     100     0.5
 32.7197     101  0.7071
 32.7604     102       1
    32.8     100     0.5
 32.8403   102.5   1.118
 32.8802     100     0.5
 32.9198   100.5     0.5
 32.9602     101  0.7071
 32.9998     101  0.7071
 33.0401   101.5   0.866
 33.0804   101.5   0.866
   33.12     101  0.7071
 33.1607   100.5     0.5
 33.1999     102       1
 33.2402   102.5   1.118
 33.2806     104  1.4142
 33.3198   109.5  2.1794
 33.3605     108       2
 33.3997     111  2.3452
   33.44   110.5  2.2913
 33.4804     108       2
   33.52     106  1.7321
 33.5603   103.5  1.3229
 33.5999   101.5   0.866
 33.6402   102.5   1.118
 33.6802     100     0.5
 33.7198   100.5     0.5
 33.7604     101  0.7071
    33.8     101  0.7071
 33.8404     100     0.5
 33.8803     101  0.7071
 33.9199   100.5     0.5
 33.9606     100     0.5
 34.0002   100.5     0.5
 34.0402     101  0.7071
 34.0801     100     0.5
 34.1197     101  0.7071
 34.1604     100     0.5
 34.2004   100.5     0.5
   34.24     100     0.5
 34.2803     100     0.5
 34.3199     100     0.5
 34.3606     100     0.5
 34.3998     101  0.7071
 34.4401     101  0.7071
 34.4804     103  1.2247
 34.5197     103  1.2247
 34.5604     103  1.2247
    34.6     103  1.2247
 34.6403   102.5   1.118
 34.6802   100.5     0.5
 34.7198     100     0.5
 34.7602     101  0.7071
 34.7998   101.5   0.866
 34.8401   100.5     0.5
   34.88     100     0.5
   34.92     100     0.5
 34.9607     100     0.5
 35.0003   100.5     0.5
 35.0402     100     0.5
 35.0802     100     0.5
 35.1198   100.5     0.5
 35.1605     101  0.7071
 35.2001   100.5     0.5
   35.24     100     0.5
 35.2804     102       1
   35.32   100.5     0.5
 35.3606   100.5     0.5
 35.4002     103  1.2247
 35.4402     103  1.2247
 35.4802     101  0.7071
 35.5201   102.5   1.118
 35.5601   100.5     0.5
 35.5997     103  1.2247
   35.64   100.5     0.5
 35.6803   101.5   0.866
 35.7199     101  0.7071
 35.7606     101  0.7071
 35.8002     101  0.7071
 35.8402   100.5     0.5
 35.8801   102.5   1.118
 35.9197     102       1
   35.96     113  2.5495
      36   134.5  4.1533
 36.0403   111.5  2.3979
 36.0803   117.5   2.958
 36.1199   105.5  1.6583
 36.1606     103  1.2247
 36.2002   101.5   0.866
 36.2401     102       1
 36.2801   101.5   0.866
 36.3197     101  0.7071
 36.3607     101  0.7071
    36.4   101.5   0.866
 36.4403   100.5     0.5
 36.4802   100.5     0.5
 36.5198   100.5     0.5
 36.5602   101.5   0.866
 36.6001     101  0.7071
 36.6401     102       1
   36.68     101  0.7071
   36.72     103  1.2247
 36.7607     101  0.7071
 36.7999     101  0.7071
 36.8402     101  0.7071
 36.8802     100     0.5
 36.9198   100.5     0.5
 36.9605     100     0.5
 36.9997   102.5   1.118
   37.04   100.5     0.5
 37.0804   100.5     0.5
   37.12   101.5   0.866
 37.1606   100.5     0.5
 37.1999     100     0.5
 37.2402     101  0.7071
 37.2802   100.5     0.5
 37.3201   100.5     0.5
 37.3601   101.5   0.866
    37.4     102       1
 37.4404   103.5  1.3229
 37.4803   101.5   0.866
 37.5199     101  0.7071
 37.5602     100     0.5
 37.5998     100     0.5
 37.6402     100     0.5
 37.6801     101  0.7071
 37.7197     100     0.5
 37.7604     100     0.5
 37.8004     100     0.5
 37.8403     100     0.5
 37.8799   101.5   0.866
 37.9199     100     0.5
 37.9606     101  0.7071
 38.0002   100.5     0.5
 38.0401     101  0.7071
 38.0804     100     0.5
 38.1197     101  0.7071
 38.1604   100.5     0.5
    38.2     100     0.5
 38.2403     100     0.5
 38.2802     100     0.5
 38.3198     101  0.7071
 38.3602     100     0.5
 38.3998     102       1
 38.4401   100.5     0.5
 38.4804     101  0.7071
   38.52     100     0.5
 38.5607     100     0.5
 38.6003     101  0.7071
 38.6402     100     0.5
 38.6798     101  0.7071
 38.7198   101.5   0.866
 38.7605   100.5     0.5
 38.8001   100.5     0.5
   38.84     100     0.5
 38.8804   100.5     0.5
   38.92     100     0.5
 38.9606     101  0.7071
 39.0002   100.5     0.5
 39.0398   100.5     0.5
 39.0805   100.5     0.5
 39.1198   100.5     0.5
 39.1601     100     0.5
 39.1997   100.5     0.5
 39.2404     101  0.7071
 39.2803   101.5   0.866
 39.3199   101.5   0.866
 39.3606     103  1.2247
 39.3998     106  1.7321
 39.4398   108.5  2.0616
 39.4801   112.5     2.5
 39.5201     104  1.4142
   39.56     104  1.4142
 39.6004     102       1
 39.6403     101  0.7071
 39.6803   101.5   0.866
 39.7199     100     0.5
 39.7602   101.5   0.866
 39.8002     100     0.5
 39.8401     100     0.5
 39.8801   101.5   0.866
 39.9197     100     0.5
 39.9604   100.5     0.5
      40   100.5     0.5
 40.0403   100.5     0.5
 40.0806   101.5   0.866
 40.1198   100.5     0.5
 40.1605   100.5     0.5
 40.1998     102       1
 40.2401   101.5   0.866
   40.28     100     0.5
   40.32   101.5   0.866
 40.3603   100.5     0.5
 40.3999     101  0.7071
 40.4402     101  0.7071
 40.4802     101  0.7071
 40.5198     102       1
 40.5601   102.5   1.118
 40.5997     106  1.7321
   40.64   107.5  1.9365
 40.6804     110  2.2361
   40.72     105  1.5811
 40.7606   104.5     1.5
 40.7999   109.5  2.1794
 40.8402     103  1.2247
 40.8798   101.5   0.866
 40.9198   101.5   0.866
 40.9601     101  0.7071
 40.9997     101  0.7071
 41.0404     101  0.7071
   41.08     100     0.5
 41.1199     101  0.7071
 41.1606     100     0.5
 41.2002     100     0.5
 41.2402   100.5     0.5
 41.2805   100.5     0.5
 41.3197     101  0.7071
   41.36   100.5     0.5
 41.4004     100     0.5
 41.4403     100     0.5
 41.4803   100.5     0.5
 41.5199   100.5     0.5
 41.5602   100.5     0.5
 41.5998     100     0.5
 41.6401   100.5     0.5
 41.6801     101  0.7071
 41.7197     101  0.7071
 41.7604     100     0.5
    41.8     101  0.7071
 41.8403     100     0.5
 41.8802     100     0.5
 41.9198   101.5   0.866
 41.9605   100.5     0.5
 41.9998   100.5     0.5
 42.0401     100     0.5
   42.08   100.5     0.5
   42.12     101  0.7071
 42.1607     100     0.5
 42.2003     100     0.5
 42.2402     101  0.7071
 42.2802   100.5     0.5
 42.3198   101.5   0.866
 42.3601     101  0.7071
 42.3997     100     0.5
   42.44   100.5     0.5
 42.4807     101  0.7071
   42.52   101.5   0.866
 42.5603   100.5     0.5
 42.6002   100.5     0.5
 42.6398   100.5     0.5
 42.6802     101  0.7071
 42.7198     101  0.7071
 42.7604     100     0.5
    42.8     100     0.5
   42.84     101  0.7071
 42.8803   100.5     0.5
 42.9199     100     0.5
 42.9602   102.5   1.118
 43.0002     101  0.7071
 43.0402     104  1.4142
 43.0801     103  1.2247
 43.1197   108.5  2.0616
   43.16   109.5  2.1794
 43.2004   111.5  2.3979
 43.2403   108.5  2.0616
 43.2803   106.5  1.8028
 43.3199   106.5  1.8028
 43.3606   112.5     2.5
 43.3998     107  1.8708
 43.4398     111  2.3452
 43.4804   103.5  1.3229
   43.52     104  1.4142
 43.5604   106.5  1.8028
    43.6   105.5  1.6583
 43.6403     109  2.1213
 43.6802     106  1.7321
 43.7198     105  1.5811
 43.7602   103.5  1.3229
 43.7998     102       1
 43.8401     100     0.5
 43.8804     101  0.7071
   43.92   102.5   1.118
 43.9607     102       1
 43.9999   101.5   0.866
 44.0402   101.5   0.866
 44.0802   100.5     0.5
 44.1198     101  0.7071
 44.1601     101  0.7071
 44.1997   101.5   0.866
   44.24   100.5     0.5
 44.2807     101  0.7071
   44.32     102       1
 44.3603     103  1.2247
 44.3999     102       1
 44.4402     101  0.7071
 44.4802   100.5     0.5
 44.5201   101.5   0.866
 44.5604     102       1
 44.5997     103  1.2247
   44.64     101  0.7071
 44.6803   102.5   1.118
 44.7199   101.5   0.866
 44.7602   102.5   1.118
 44.8002     101  0.7071
 44.8398   100.5     0.5
 44.8805     100     0.5
 44.9197     100     0.5
   44.96   100.5     0.5
      45     101  0.7071
   45.04   100.5     0.5
 45.0806     101  0.7071
 45.1199   100.5     0.5
 45.1602   101.5   0.866
 45.1998     101  0.7071
 45.2401   101.5   0.866
 45.2801     101  0.7071
 45.3197     101  0.7071
 45.3604     102       1
    45.4     103  1.2247
 45.4403   101.5   0.866
 45.4802   100.5     0.5
 45.5198     105  1.5811
 45.5605   104.5     1.5
 45.5998     102       1
 45.6401     104  1.4142
   45.68   101.5   0.866
   45.72   104.5     1.5
 45.7607     103  1.2247
 45.7999   100.5     0.5
 45.8402   101.5   0.866
 45.8806     101  0.7071
 45.9198   101.5   0.866
 45.9601   100.5     0.5
 45.9997   100.5     0.5
   46.04     101  0.7071
 46.0807     100     0.5
   46.12   100.5     0.5
 46.1603     101  0.7071
 46.1999     102       1
 46.2402     101  0.7071
 46.2802   100.5     0.5
 46.3198   100.5     0.5
 46.3601   100.5     0.5
 46.3997     102       1
 46.4404   101.5   0.866
 46.4803   101.5   0.866
 46.5199     101  0.7071
 46.5602     102       1
 46.6002   100.5     0.5
 46.6402   102.5   1.118
 46.6801   101.5   0.866
 46.7197   101.5   0.866
   46.76   102.5   1.118
 46.8004     102       1
 46.8403   101.5   0.866
 46.8803   102.5   1.118
 46.9199   101.5   0.866
 46.9606     101  0.7071
 46.9998   100.5     0.5
 47.0401   101.5   0.866
 47.0804     100     0.5
 47.1197     101  0.7071
 47.1604   103.5  1.3229
    47.2     105  1.5811
 47.2403     104  1.4142
 47.2802     104  1.4142
 47.3198     105  1.5811
 47.3602   104.5     1.5
 47.3998   101.5   0.866
 47.4401   105.5  1.6583
   47.48     107  1.8708
   47.52   126.5  3.6401
 47.5603   129.5  3.8406
 47.6003   112.5     2.5
 47.6402     119  3.0822
 47.6806   111.5  2.3979
 47.7198   112.5     2.5
 47.7605   111.5  2.3979
 47.7997     117  2.9155
   47.84     123  3.3912
 47.8807   117.5   2.958
   47.92   119.5  3.1225
 47.9603   117.5   2.958
 48.0002   110.5  2.2913
 48.0402   107.5  1.9365
 48.0805     105  1.5811
 48.1198   105.5  1.6583
 48.1601     105  1.5811
    48.2   103.5  1.3229
 48.2404   103.5  1.3229
 48.2803     105  1.5811
 48.3199   105.5  1.6583
 48.3606   104.5     1.5
 48.3998   108.5  2.0616
 48.4402     109  2.1213
 48.4805     110  2.2361
 48.5197     114  2.6458
   48.56     121  3.2404
    48.6     117  2.9155
   48.64   111.5  2.3979
 48.6803   109.5  2.1794
 48.7199   110.5  2.2913
 48.7602   103.5  1.3229
 48.8002   102.5   1.118
 48.8401     101  0.7071
 48.8801   102.5   1.118
 48.9197   100.5     0.5
 48.9604   100.5     0.5
      49   101.5   0.866
 49.0403     100     0.5
 49.0802   100.5     0.5
 49.1202   101.5   0.866
 49.1605     102       1
 49.2001     101  0.7071
 49.2401     100     0.5
   49.28     102       1
   49.32     100     0.5
 49.3607     102       1
 49.3999     101  0.7071
 49.4402   100.5     0.5
 49.4802     101  0.7071
 49.5198     100     0.5
 49.5605     102       1
 49.6001     100     0.5
   49.64     101  0.7071
 49.6804   100.5     0.5
   49.72   100.5     0.5
 49.7603   101.5   0.866
 49.8002     101  0.7071
 49.8402   101.5   0.866
 49.8802     102       1
 49.9198   100.5     0.5
 49.9601   100.5     0.5
 49.9997     102       1
   50.04     102       1
 50.0803     101  0.7071
 50.1199   101.5   0.866
 50.1606     100     0.5
 50.1998     102       1
 50.2402   102.5   1.118
 50.2801     103  1.2247
 50.3197   105.5  1.6583
   50.36   105.5  1.6583
    50.4     106  1.7321
   50.44   102.5   1.118
 50.4806     103  1.2247
 50.5199     104  1.4142
 50.5602     101  0.7071
 50.5998     102       1
 50.6401     100     0.5
 50.6801     103  1.2247
 50.7197     104  1.4142
 50.7604     104  1.4142
    50.8     103  1.2247
 50.8403   102.5   1.118
 50.8806     102       1
 50.9198   101.5   0.866
 50.9605     103  1.2247
 50.9998   103.5  1.3229
 51.0401   101.5   0.866
   51.08     101  0.7071
   51.12     101  0.7071
 51.1607   103.5  1.3229
 51.2003   105.5  1.6583
 51.2402     103  1.2247
 51.2802   103.5  1.3229
 51.3198   105.5  1.6583
 51.3605   103.5  1.3229
 51.4001   102.5   1.118
   51.44     103  1.2247
 51.4807   103.5  1.3229
   51.52     105  1.5811
 51.5603   103.5  1.3229
 51.6002     102       1
 51.6402   100.5     0.5
 51.6802   101.5   0.866
 51.7198     101  0.7071
 51.7601   100.5     0.5
 51.7997   101.5   0.866
 51.8404     101  0.7071
 51.8803     100     0.5
 51.9199     101  0.7071
 51.9602     100     0.5
 52.0002     101  0.7071
 52.0402     100     0.5
 52.0801   100.5     0.5
 52.1197     100     0.5
 52.1604   100.5     0.5
    52.2     100     0.5
 52.2403   100.5     0.5
 52.2806     100     0.5
 52.3199   101.5   0.866
 52.3602   100.5     0.5
 52.3998   100.5     0.5
 52.4401     100     0.5
 52.4801     100     0.5
 52.5197   100.5     0.5
 52.5604   101.5   0.866
 52.6003   100.5     0.5
 52.6403     100     0.5
 52.6802     100     0.5
 52.7198   100.5     0.5
 52.7605     100     0.5
 52.8001   100.5     0.5
 52.8401     100     0.5
 52.8804   100.5     0.5
   52.92   101.5   0.866
 52.9607     101  0.7071
 53.0003   100.5     0.5
 53.0402     100     0.5
 53.0802   100.5     0.5
 53.1198   100.5     0.5
 53.1601   100.5     0.5
 53.2004     101  0.7071
   53.24   100.5     0.5
 53.2804     100     0.5
   53.32     100     0.5
 53.3606   100.5     0.5
 53.3999     100     0.5
 53.4402   101.5   0.866
 53.4802   100.5     0.5
 53.5198   100.5     0.5
 53.5601   100.5     0.5
 53.5997   101.5   0.866
 53.6404     100     0.5
 53.6803   101.5   0.866
 53.7199   101.5   0.866
 53.7602     100     0.5
 53.8002     100     0.5
 53.8402   100.5     0.5
 53.8801     101  0.7071
 53.9197   100.5     0.5
   53.96     100     0.5
      54     101  0.7071
 54.0403     100     0.5
 54.0803   100.5     0.5
 54.1199   100.5     0.5
 54.1606   100.5     0.5
 54.1998   100.5     0.5
 54.2401   100.5     0.5
 54.2801   101.5   0.866
 54.3197   100.5     0.5
 54.3604     100     0.5
    54.4   100.5     0.5
 54.4403     100     0.5
 54.4802   100.5     0.5
 54.5198     100     0.5
 54.5605     100     0.5
 54.5998     101  0.7071
 54.6401   101.5   0.866
   54.68   100.5     0.5
   54.72     101  0.7071
 54.7607   100.5     0.5
 54.7999   100.5     0.5
 54.8402     100     0.5
 54.8802     100     0.5
 54.9198   100.5     0.5
 54.9605   100.5     0.5
 54.9997   100.5     0.5
   55.04     100     0.5
 55.0804     100     0.5
   55.12   101.5   0.866
 55.1603     102       1
 55.2002   100.5     0.5
 55.2402   102.5   1.118
 55.2805   101.5   0.866
 55.3201     102       1
 55.3604     100     0.5
 55.3997     100     0.5
 55.4404   100.5     0.5
 55.4803     101  0.7071
 55.5199     101  0.7071
 55.5606   100.5     0.5
 55.5998   100.5     0.5
 55.6402     100     0.5
 55.6801     101  0.7071
 55.7197     101  0.7071
   55.76   100.5     0.5
 55.8004     102       1
 55.8403   103.5  1.3229
 55.8806   101.5   0.866
 55.9199   100.5     0.5
 55.9602   101.5   0.866
 55.9998     100     0.5
 56.0401   100.5     0.5
 56.0801     102       1
 56.1197     102       1
 56.1604   101.5   0.866
    56.2     100     0.5
 56.2403   101.5   0.866
 56.2806     102       1
 56.3198   100.5     0.5
 56.3602   101.5   0.866
 56.3998   100.5     0.5
 56.4397   101.5   0.866
   56.48   100.5     0.5
   56.52   101.5   0.866
 56.5607   100.5     0.5
 56.5999   102.5   1.118
 56.6402     103  1.2247
 56.6802   103.5  1.3229
 56.7198     103  1.2247
 56.7605     106  1.7321
 56.8001   104.5     1.5
   56.84     107  1.8708
 56.8804   104.5     1.5
   56.92     104  1.4142
 56.9603     104  1.4142
 57.0002   100.5     0.5
 57.0402     101  0.7071
 57.0802   101.5   0.866
 57.1198     100     0.5
 57.1604   101.5   0.866
    57.2     102       1
 57.2404   100.5     0.5
 57.2803     102       1
 57.3199   100.5     0.5
 57.3602     102       1
 57.3998     104  1.4142
 57.4402     106  1.7321
 57.4801     106  1.7321
 57.5197     103  1.2247
   57.56     106  1.7321
    57.6   103.5  1.3229
   57.64     104  1.4142
 57.6803     101  0.7071
 57.7199     101  0.7071
 57.7606   100.5     0.5
 57.7998     101  0.7071
 57.8401     101  0.7071
 57.8801   101.5   0.866
 57.9197     100     0.5
 57.9604     100     0.5
      58     102       1
 58.0403   100.5     0.5
 58.0802     101  0.7071
 58.1198   102.5   1.118
 58.1602     102       1
 58.1998     102       1
 58.2401     103  1.2247
   58.28   103.5  1.3229
   58.32     103  1.2247
 58.3607     102       1
 58.3999     102       1
 58.4402   101.5   0.866
 58.4802   101.5   0.866
 58.5198     100     0.5
 58.5605     100     0.5
 58.5997     100     0.5
   58.64     101  0.7071
 58.6804     101  0.7071
   58.72     101  0.7071
 58.7606     100     0.5
 58.8002     101  0.7071
 58.8402   100.5     0.5
 58.8802     101  0.7071
 58.9198     100     0.5
 58.9604   101.5   0.866
 58.9997   100.5     0.5
 59.0404     100     0.5
 59.0803     100     0.5
 59.1199     100     0.5
 59.1602   100.5     0.5
 59.2002     101  0.7071
 59.2402     100     0.5
 59.2801   100.5     0.5
 59.3197     100     0.5
   59.36   100.5     0.5
 59.4004   100.5     0.5
 59.4403     100     0.5
 59.4803     100     0.5
 59.5199     101  0.7071
 59.5606   100.5     0.5
 59.6002   100.5     0.5
 59.6401     100     0.5
 59.6801   100.5     0.5
 59.7197     100     0.5
 59.7604     100     0.5
    59.8   100.5     0.5
 59.8403     100     0.5
 59.8802     101  0.7071
 59.9198   100.5     0.5
 59.9605     101  0.7071
 60.0001     101  0.7071
 60.0401     100     0.5
   60.08   100.5     0.5
   60.12   100.5     0.5
 60.1607   100.5     0.5
 60.2003     100     0.5
 60.2402   100.5     0.5
 60.2802     101  0.7071
 60.3198     101  0.7071
 60.3601     101  0.7071
 60.3997   100.5     0.5
 60.4397     102       1
 60.4807   100.5     0.5
   60.52     100     0.5
 60.5603   100.5     0.5
 60.5999   100.5     0.5
 60.6402   101.5   0.866
 60.6802   102.5   1.118
 60.7198   101.5   0.866
 60.7601     101  0.7071
 60.7997   102.5   1.118
 60.8404     102       1
 60.8807     103  1.2247
 60.9199     102       1
 60.9606     102       1
 60.9998   103.5  1.3229
 61.0402     107  1.8708
 61.0798     105  1.5811
 61.1197     107  1.8708
   61.16     104  1.4142
 61.2004     103  1.2247
 61.2403     102       1
 61.2806   106.5  1.8028
 61.3199     102       1
 61.3606   101.5   0.866
 61.4002   102.5   1.118
 61.4401   100.5     0.5
 61.4801     101  0.7071
 61.5197     102       1
 61.5604     101  0.7071
    61.6     101  0.7071
 61.6403   100.5     0.5
 61.6806     100     0.5
 61.7198   100.5     0.5
 61.7602     100     0.5
 61.7998   100.5     0.5
 61.8401   101.5   0.866
   61.88     100     0.5
   61.92   100.5     0.5
 61.9607     100     0.5
 61.9999     100     0.5
 62.0402     101  0.7071
 62.0802     101  0.7071
 62.1198     101  0.7071
 62.1605     101  0.7071
 62.1997   100.5     0.5
   62.24   101.5   0.866
 62.2804   101.5   0.866
   62.32     100     0.5
 62.3606     100     0.5
 62.3999     101  0.7071
 62.4402   101.5   0.866
 62.4802     101  0.7071
 62.5198     100     0.5
 62.5601     100     0.5
    62.6   100.5     0.5
 62.6404     100     0.5
 62.6803   100.5     0.5
 62.7199     100     0.5
 62.7602     100     0.5
 62.8002     100     0.5
 62.8398     102       1
 62.8805     101  0.7071
 62.9197     100     0.5
   62.96   100.5     0.5
 63.0004     101  0.7071
   63.04   100.5     0.5
 63.0806     101  0.7071
 63.1199   102.5   1.118
 63.1606     101  0.7071
 63.2002     100     0.5
 63.2401   100.5     0.5
 63.2804   101.5   0.866
 63.3197   101.5   0.866
 63.3604   100.5     0.5
    63.4     100     0.5
 63.4403   101.5   0.866
 63.4802     100     0.5
 63.5198   100.5     0.5
 63.5602     100     0.5
 63.5998   100.5     0.5
 63.6397   100.5     0.5
   63.68   100.5     0.5
   63.72   101.5   0.866
 63.7607   100.5     0.5
 63.7999     101  0.7071
 63.8402   100.5     0.5
 63.8802     102       1
 63.9198   101.5   0.866
 63.9601     100     0.5
 64.0001   100.5     0.5
   64.04     101  0.7071
 64.0807     100     0.5
   64.12     100     0.5
 64.1603   100.5     0.5
 64.1999     100     0.5
 64.2402     100     0.5
 64.2805     100     0.5
 64.3198     100     0.5
 64.3601   100.5     0.5
 64.3997     100     0.5
   64.44   100.5     0.5
 64.4807     100     0.5
 64.5199     101  0.7071
 64.5602     102       1
 64.6002   101.5   0.866
 64.6402   100.5     0.5
 64.6805     102       1
 64.7197   102.5   1.118
   64.76   101.5   0.866
 64.7996   101.5   0.866
 64.8403     103  1.2247
 64.8803     102       1
 64.9199     104  1.4142
 64.9606   100.5     0.5
 64.9998     101  0.7071
 65.0401     101  0.7071
 65.0801   100.5     0.5
 65.1197   102.5   1.118
 65.1604     101  0.7071
    65.2   101.5   0.866
 65.2403   100.5     0.5
 65.2802   100.5     0.5
 65.3198   101.5   0.866
 65.3602     101  0.7071
 65.4001   102.5   1.118
 65.4401   100.5     0.5
   65.48     100     0.5
   65.52     101  0.7071
 65.5603   101.5   0.866
 65.5999     102       1
 65.6402   101.5   0.866
 65.6802   102.5   1.118
 65.7198     101  0.7071
 65.7605   101.5   0.866
 65.8001   103.5  1.3229
   65.84     102       1
 65.8804   101.5   0.866
   65.92     101  0.7071
 65.9606     102       1
 66.0002   101.5   0.866
 66.0402     100     0.5
 66.0805     101  0.7071
 66.1198     100     0.5
 66.1601   100.5     0.5
 66.1997     100     0.5
 66.2404   100.5     0.5
 66.2803   100.5     0.5
 66.3199   101.5   0.866
 66.3602     101  0.7071
 66.3998     100     0.5
 66.4402   100.5     0.5
 66.4801     100     0.5
 66.5201   100.5     0.5
   66.56     101  0.7071
 66.6004     100     0.5
 66.6403   101.5   0.866
 66.6803     100     0.5
 66.7199     101  0.7071
 66.7602   100.5     0.5
 66.7998   100.5     0.5
 66.8401     101  0.7071
 66.8801   100.5     0.5
 66.9197     100     0.5
 66.9604   100.5     0.5
      67     100     0.5
 67.0403   101.5   0.866
 67.0802   100.5     0.5
 67.1198   100.5     0.5
 67.1602     100     0.5
 67.2001     100     0.5
 67.2401     100     0.5
 67.2804   100.5     0.5
   67.32     100     0.5
 67.3607     100     0.5
 67.3999   100.5     0.5
 67.4402     100     0.5
 67.4802   100.5     0.5
 67.5198     101  0.7071
 67.5605   100.5     0.5
 67.6001   100.5     0.5
   67.64     101  0.7071
 67.6804     102       1
   67.72   100.5     0.5
 67.7606   100.5     0.5
 67.8002   100.5     0.5
 67.8402   100.5     0.5
 67.8802   100.5     0.5
 67.9198     100     0.5
 67.9604     101  0.7071
      68     101  0.7071
   68.04   100.5     0.5
 68.0803     100     0.5
 68.1199   100.5     0.5
 68.1602   100.5     0.5
 68.2002     101  0.7071
 68.2402     100     0.5
 68.2801     101  0.7071
 68.3197     100     0.5
   68.36     100     0.5
    68.4     100     0.5
 68.4403   101.5   0.866
 68.4803   101.5   0.866
 68.5199     101  0.7071
 68.5602     101  0.7071
 68.6002   101.5   0.866
 68.6401   101.5   0.866
 68.6804     103  1.2247
 68.7197     102       1
 68.7604     103  1.2247
    68.8     103  1.2247
 68.8403   103.5  1.3229
 68.8802   102.5   1.118
 68.9198     102       1
 68.9605     101  0.7071
 69.0001   101.5   0.866
 69.0401     100     0.5
 69.0804     101  0.7071
   69.12     100     0.5
 69.1603   100.5     0.5
 69.1999   100.5     0.5
 69.2402     102       1
 69.2806   100.5     0.5
 69.3198     101  0.7071
 69.3601   100.5     0.5
 69.3997     100     0.5
   69.44     101  0.7071
 69.4804   100.5     0.5
   69.52     100     0.5
 69.5603     100     0.5
 69.5999   100.5     0.5
 69.6402   100.5     0.5
 69.6802     100     0.5
 69.7198     100     0.5
 69.7601     100     0.5
 69.7997     100     0.5
 69.8404   100.5     0.5
 69.8807     102       1
 69.9199   102.5   1.118
 69.9602   100.5     0.5
      70     102       1
