    6.05     241    15.5
     6.1     263    16.2
    6.15     253    15.9
     6.2     215    14.7
    6.25     225      15
     6.3     223    14.9
    6.35     255      16
     6.4     243    15.6
    6.45     247    15.7
     6.5     208    14.4
    6.55     253    15.9
     6.6     256      16
    6.65     228    15.1
     6.7     248    15.7
    6.75     237    15.4
     6.8     242    15.6
    6.85     278    16.7
     6.9     225      15
    6.95     248    15.7
       7     243    15.6
    7.05     222    14.9
     7.1     249    15.8
    7.15     235    15.3
     7.2     240    15.5
    7.25     221    14.9
     7.3     241    15.5
    7.35     242    15.6
     7.4     240    15.5
    7.45     231    15.2
     7.5     205    14.3
    7.55     228    15.1
     7.6     250    15.8
    7.65     242    15.6
     7.7     259    16.1
    7.75     217    14.7
     7.8     198    14.1
    7.85     225      15
     7.9     238    15.4
    7.95     228    15.1
       8     205    14.3
    8.05     216    14.7
     8.1     227    15.1
    8.15     217    14.7
     8.2     215    14.7
    8.25     202    14.2
     8.3     204    14.3
    8.35     220    14.8
     8.4     218    14.8
    8.45     251    15.8
     8.5     206    14.4
    8.55     214    14.6
     8.6     215    14.7
    8.65     213    14.6
     8.7     209    14.5
    8.75     220    14.8
     8.8     227    15.1
    8.85     207    14.4
     8.9     238    15.4
    8.95     215    14.7
       9     225      15
    9.05     209    14.5
     9.1     205    14.3
    9.15     212    14.6
     9.2     222    14.9
    9.25     208    14.4
     9.3     211    14.5
    9.35     214    14.6
     9.4     255      16
    9.45     226      15
     9.5     240    15.5
    9.55     221    14.9
     9.6     193    13.9
    9.65     199    14.1
     9.7     214    14.6
    9.75     211    14.5
     9.8     206    14.4
    9.85     193    13.9
     9.9     202    14.2
    9.95     234    15.3
      10     220    14.8
   10.05     214    14.6
    10.1     219    14.8
   10.15     224      15
    10.2     198    14.1
   10.25     229    15.1
    10.3     224      15
   10.35     216    14.7
    10.4     202    14.2
   10.45     229    15.1
    10.5     202    14.2
   10.55     215    14.7
    10.6     215    14.7
   10.65     196      14
    10.7     235    15.3
   10.75     207    14.4
    10.8     205    14.3
   10.85     238    15.4
    10.9     202    14.2
   10.95     213    14.6
      11     226      15
   11.05     198    14.1
    11.1     222    14.9
   11.15     186    13.6
    11.2     216    14.7
   11.25     218    14.8
    11.3     225      15
   11.35     200    14.1
    11.4     196      14
   11.45     224      15
    11.5     199    14.1
   11.55     204    14.3
    11.6     189    13.7
   11.65     211    14.5
    11.7     190    13.8
   11.75     184    13.6
    11.8     204    14.3
   11.85     204    14.3
    11.9     219    14.8
   11.95     207    14.4
      12     227    15.1
   12.05     211    10.3
    12.1     193     9.8
   12.15     206    10.1
    12.2     208    10.2
   12.25     191     9.8
    12.3     194     9.8
   12.35     185     9.6
    12.4     200      10
   12.45     203    10.1
    12.5     197     9.9
   12.55     203    10.1
    12.6     200      10
   12.65     200      10
    12.7     205    10.1
   12.75     208    10.2
    12.8     205    10.1
   12.85     201      10
    12.9     221    10.5
   12.95     218    10.4
      13     218    10.4
   13.05     216    10.4
    13.1     202      10
   13.15     206    10.1
    13.2     197     9.9
   13.25     210    10.2
    13.3     199      10
   13.35     219    10.5
    13.4     192     9.8
   13.45     211    10.3
    13.5     199      10
   13.55     196     9.9
    13.6     195     9.9
   13.65     203    10.1
    13.7     202      10
   13.75     200      10
    13.8     199      10
   13.85     191     9.8
    13.9     204    10.1
   13.95     191     9.8
      14     200      10
   14.05     199      10
    14.1     197     9.9
   14.15     202      10
    14.2     210    10.2
   14.25     202      10
    14.3     198     9.9
   14.35     191     9.8
    14.4     194     9.8
   14.45     198     9.9
    14.5     194     9.8
   14.55     193     9.8
    14.6     212    10.3
   14.65     214    10.3
    14.7     197     9.9
   14.75     195     9.9
    14.8     205    10.1
   14.85     209    10.2
    14.9     203    10.1
   14.95     197     9.9
      15     191     9.8
   15.05     192     9.8
    15.1     215    10.4
   15.15     194     9.8
    15.2     189     9.7
   15.25     188     9.7
    15.3     202      10
   15.35     201      10
    15.4     198     9.9
   15.45     208    10.2
    15.5     197     9.9
   15.55     187     9.7
    15.6     187     9.7
   15.65     190     9.7
    15.7     197     9.9
   15.75     200      10
    15.8     193     9.8
   15.85     180     9.5
    15.9     194     9.8
   15.95     206    10.1
      16     195     9.9
   16.05     193     9.8
    16.1     205    10.1
   16.15     194     9.8
    16.2     196     9.9
   16.25     194     9.8
    16.3     199      10
   16.35     207    10.2
    16.4     188     9.7
   16.45     203    10.1
    16.5     188     9.7
   16.55     180     9.5
    16.6     198     9.9
   16.65     200      10
    16.7     201      10
   16.75     210    10.2
    16.8     206    10.1
   16.85     189     9.7
    16.9     194     9.8
   16.95     187     9.7
      17     195     9.9
   17.05     201      10
    17.1     197     9.9
   17.15     206    10.1
    17.2     208    10.2
   17.25     199      10
    17.3     192     9.8
   17.35     193     9.8
    17.4     204    10.1
   17.45     201      10
    17.5     200      10
   17.55     177     9.4
    17.6     193     9.8
   17.65     199      10
    17.7     201      10
   17.75     194     9.8
    17.8     184     9.6
   17.85     192     9.8
    17.9     199      10
   17.95     190     9.7
      18     183     9.6
   18.05     189     7.9
    18.1     196     8.1
   18.15     196     8.1
    18.2     198     8.1
   18.25     210     8.4
    18.3     212     8.4
   18.35     219     8.5
    18.4     198     8.1
   18.45     195     8.1
    18.5     198     8.1
   18.55     191       8
    18.6     193       8
   18.65     197     8.1
    18.7     194       8
   18.75     187     7.9
    18.8     209     8.3
   18.85     187     7.9
    18.9     198     8.1
   18.95     206     8.3
      19     197     8.1
   19.05     191       8
    19.1     200     8.2
   19.15     207     8.3
    19.2     205     8.3
   19.25     198     8.1
    19.3     196     8.1
   19.35     209     8.3
    19.4     211     8.4
   19.45     203     8.2
    19.5     200     8.2
   19.55     192       8
    19.6     208     8.3
   19.65     213     8.4
    19.7     221     8.6
   19.75     216     8.5
    19.8     226     8.7
   19.85     228     8.7
    19.9     228     8.7
   19.95     215     8.5
      20     224     8.6
   20.05     226     8.7
    20.1     213     8.4
   20.15     239     8.9
    20.2     250     9.1
   20.25     247     9.1
    20.3     240     8.9
   20.35     231     8.8
    20.4     236     8.9
   20.45     223     8.6
    20.5     231     8.8
   20.55     226     8.7
    20.6     214     8.4
   20.65     208     8.3
    20.7     214     8.4
   20.75     196     8.1
    20.8     204     8.2
   20.85     199     8.1
    20.9     186     7.9
   20.95     192       8
      21     199     8.1
   21.05     200     8.2
    21.1     184     7.8
   21.15     184     7.8
    21.2     189     7.9
   21.25     182     7.8
    21.3     184     7.8
   21.35     185     7.9
    21.4     195     8.1
   21.45     190       8
    21.5     194       8
   21.55     185     7.9
    21.6     183     7.8
   21.65     193       8
    21.7     194       8
   21.75     193       8
    21.8     188     7.9
   21.85     191       8
    21.9     189     7.9
   21.95     188     7.9
      22     201     8.2
   22.05     195     8.1
    22.1     205     8.3
   22.15     200     8.2
    22.2     200     8.2
   22.25     192       8
    22.3     197     8.1
   22.35     204     8.2
    22.4     207     8.3
   22.45     192       8
    22.5     201     8.2
   22.55     190       8
    22.6     195     8.1
   22.65     194       8
    22.7     182     7.8
   22.75     189     7.9
    22.8     196     8.1
   22.85     196     8.1
    22.9     200     8.2
   22.95     190       8
      23     183     7.8
   23.05     199     8.1
    23.1     187     7.9
   23.15     196     8.1
    23.2     191       8
   23.25     191       8
    23.3     195     8.1
   23.35     194       8
    23.4     192       8
   23.45     182     7.8
    23.5     188     7.9
   23.55     203     8.2
    23.6     187     7.9
   23.65     192       8
    23.7     206     8.3
   23.75     201     8.2
    23.8     184     7.8
   23.85     192       8
    23.9     205     8.3
   23.95     196     8.1
      24     193       8
   24.05     194       7
    24.1     195       7
   24.15     194       7
    24.2     201     7.1
   24.25     193     6.9
    24.3     176     6.6
   24.35     187     6.8
    24.4     188     6.9
   24.45     196       7
    24.5     192     6.9
   24.55     185     6.8
    24.6     195       7
   24.65     198       7
    24.7     205     7.2
   24.75     200     7.1
    24.8     208     7.2
   24.85     195       7
    24.9     187     6.8
   24.95     193     6.9
      25     197       7
   25.05     202     7.1
    25.1     193     6.9
   25.15     196       7
    25.2     202     7.1
   25.25     201     7.1
    25.3     197       7
   25.35     204     7.1
    25.4     208     7.2
   25.45     206     7.2
    25.5     212     7.3
   25.55     207     7.2
    25.6     207     7.2
   25.65     212     7.3
    25.7     216     7.3
   25.75     218     7.4
    25.8     221     7.4
   25.85     218     7.4
    25.9     207     7.2
   25.95     203     7.1
      26     204     7.1
   26.05     202     7.1
    26.1     206     7.2
   26.15     202     7.1
    26.2     202     7.1
   26.25     181     6.7
    26.3     193     6.9
   26.35     205     7.2
    26.4     198       7
   26.45     196       7
    26.5     197       7
   26.55     195       7
    26.6     201     7.1
   26.65     205     7.2
    26.7     195       7
   26.75     196       7
    26.8     196       7
   26.85     205     7.2
    26.9     198       7
   26.95     200     7.1
      27     199     7.1
   27.05     180     6.7
    27.1     187     6.8
   27.15     193     6.9
    27.2     197       7
   27.25     197       7
    27.3     196       7
   27.35     194       7
    27.4     197       7
   27.45     204     7.1
    27.5     201     7.1
   27.55     187     6.8
    27.6     191     6.9
   27.65     205     7.2
    27.7     200     7.1
   27.75     198       7
    27.8     200     7.1
   27.85     204     7.1
    27.9     196       7
   27.95     195       7
      28     194       7
   28.05     200     7.1
    28.1     198       7
   28.15     201     7.1
    28.2     208     7.2
   28.25     205     7.2
    28.3     211     7.3
   28.35     211     7.3
    28.4     220     7.4
   28.45     220     7.4
    28.5     212     7.3
   28.55     208     7.2
    28.6     214     7.3
   28.65     226     7.5
    28.7     235     7.7
   28.75     233     7.6
    28.8     237     7.7
   28.85     242     7.8
    28.9     242     7.8
   28.95     245     7.8
      29     239     7.7
   29.05     226     7.5
    29.1     232     7.6
   29.15     238     7.7
    29.2     226     7.5
   29.25     218     7.4
    29.3     218     7.4
   29.35     214     7.3
    29.4     205     7.2
   29.45     200     7.1
    29.5     193     6.9
   29.55     195       7
    29.6     196       7
   29.65     195       7
    29.7     207     7.2
   29.75     215     7.3
    29.8     207     7.2
   29.85     218     7.4
    29.9     218     7.4
   29.95     220     7.4
      30     220     7.4
   30.05     229     6.8
    30.1     236     6.9
   30.15     254     7.1
    30.2     264     7.3
   30.25     280     7.5
    30.3     289     7.6
   30.35     289     7.6
    30.4     303     7.8
   30.45     302     7.8
    30.5     297     7.7
   30.55     281     7.5
    30.6     278     7.5
   30.65     280     7.5
    30.7     265     7.3
   30.75     258     7.2
    30.8     243       7
   30.85     240     6.9
    30.9     232     6.8
   30.95     231     6.8
      31     233     6.8
   31.05     246       7
    31.1     248       7
   31.15     249     7.1
    31.2     256     7.2
   31.25     272     7.4
    31.3     289     7.6
   31.35     311     7.9
    31.4     340     8.2
   31.45     363     8.5
    31.5     393     8.9
   31.55     440     9.4
    31.6     474     9.7
   31.65     482     9.8
    31.7     492     9.9
   31.75     508    10.1
    31.8     494     9.9
   31.85     475     9.7
    31.9     439     9.4
   31.95     413     9.1
      32     368     8.6
   32.05     331     8.1
    32.1     299     7.7
   32.15     286     7.6
    32.2     262     7.2
   32.25     241     6.9
    32.3     238     6.9
   32.35     252     7.1
    32.4     267     7.3
   32.45     276     7.4
    32.5     278     7.5
   32.55     300     7.7
    32.6     325     8.1
   32.65     336     8.2
    32.7     359     8.5
   32.75     405       9
    32.8     458     9.6
   32.85     501      10
    32.9     564    10.6
   32.95     640    11.3
      33     719      12
   33.05     783    12.5
    33.1     837    12.9
   33.15     851      13
    33.2     866    13.2
   33.25     828    12.9
    33.3     763    12.4
   33.35     697    11.8
    33.4     634    11.3
   33.45     541    10.4
    33.5     465     9.6
   33.55     391     8.8
    33.6     351     8.4
   33.65     301     7.8
    33.7     284     7.5
   33.75     260     7.2
    33.8     248       7
   33.85     257     7.2
    33.9     242       7
   33.95     246       7
      34     263     7.3
   34.05     271     7.4
    34.1     281     7.5
   34.15     302     7.8
    34.2     309     7.9
   34.25     335     8.2
    34.3     342     8.3
   34.35     345     8.3
    34.4     356     8.4
   34.45     351     8.4
    34.5     341     8.3
   34.55     334     8.2
    34.6     321       8
   34.65     286     7.6
    34.7     268     7.3
   34.75     256     7.2
    34.8     238     6.9
   34.85     229     6.8
    34.9     218     6.6
   34.95     223     6.7
      35     216     6.6
   35.05     203     6.4
    35.1     203     6.4
   35.15     194     6.2
    35.2     205     6.4
   35.25     196     6.3
    35.3     193     6.2
   35.35     206     6.4
    35.4     201     6.3
   35.45     201     6.3
    35.5     201     6.3
   35.55     200     6.3
    35.6     194     6.2
   35.65     196     6.3
    35.7     203     6.4
   35.75     195     6.2
    35.8     196     6.3
   35.85     211     6.5
    35.9     216     6.6
   35.95     207     6.4
      36     215     6.6
   36.05     221     6.6
    36.1     237     6.3
   36.15     248     6.4
    36.2     261     6.6
   36.25     279     6.8
    36.3     319     7.3
   36.35     337     7.5
    36.4     364     7.8
   36.45     423     8.4
    36.5     489       9
   36.55     557     9.6
    36.6     630    10.2
   36.65     729      11
    36.7     822    11.7
   36.75     943    12.5
    36.8    1059    13.3
   36.85    1196    14.1
    36.9    1235    14.3
   36.95    1220    14.3
      37    1209    14.2
   37.05    1128    13.7
    37.1    1001    12.9
   37.15     864      12
    37.2     729      11
   37.25     601      10
    37.3     496     9.1
   37.35     418     8.3
    37.4     355     7.7
   37.45     313     7.2
    37.5     263     6.6
   37.55     246     6.4
    37.6     226     6.1
   37.65     214       6
    37.7     222     6.1
   37.75     222     6.1
    37.8     211     5.9
   37.85     211     5.9
    37.9     202     5.8
   37.95     198     5.7
      38     192     5.7
   38.05     193     5.7
    38.1     196     5.7
   38.15     201     5.8
    38.2     203     5.8
   38.25     203     5.8
    38.3     201     5.8
   38.35     198     5.7
    38.4     196     5.7
   38.45     206     5.9
    38.5     210     5.9
   38.55     197     5.7
    38.6     204     5.8
   38.65     200     5.8
    38.7     205     5.8
   38.75     196     5.7
    38.8     195     5.7
   38.85     205     5.8
    38.9     204     5.8
   38.95     200     5.8
      39     203     5.8
   39.05     208     5.9
    39.1     207     5.9
   39.15     202     5.8
    39.2     203     5.8
   39.25     198     5.7
    39.3     204     5.8
   39.35     210     5.9
    39.4     216       6
   39.45     210     5.9
    39.5     229     6.2
   39.55     239     6.3
    39.6     247     6.4
   39.65     278     6.8
    39.7     302     7.1
   39.75     324     7.3
    39.8     371     7.9
   39.85     420     8.4
    39.9     465     8.8
   39.95     538     9.5
      40     630    10.2
   40.05     739    11.1
    40.1     851    11.9
   40.15     976    12.8
    40.2    1076    13.4
   40.25    1161    13.9
    40.3    1222    14.3
   40.35    1227    14.3
    40.4    1187    14.1
   40.45    1096    13.5
    40.5     964    12.7
   40.55     833    11.8
    40.6     708    10.9
   40.65     587     9.9
    40.7     512     9.2
   40.75     436     8.5
    40.8     391     8.1
   40.85     384       8
    40.9     370     7.9
   40.95     391     8.1
      41     419     8.4
   41.05     448     8.6
    41.1     490       9
   41.15     567     9.7
    41.2     626    10.2
   41.25     687    10.7
    41.3     735    11.1
   41.35     780    11.4
    41.4     782    11.4
   41.45     745    11.1
    41.5     721      11
   41.55     662    10.5
    41.6     595      10
   41.65     527     9.4
    41.7     446     8.6
   41.75     393     8.1
    41.8     335     7.5
   41.85     301     7.1
    41.9     276     6.8
   41.95     251       6
      42     242     5.9
   42.05     229     5.7
    42.1     209     5.5
   42.15     215     5.5
    42.2     218     5.6
   42.25     214     5.5
    42.3     209     5.5
   42.35     208     5.5
    42.4     212     5.5
   42.45     210     5.5
    42.5     209     5.5
   42.55     210     5.5
    42.6     205     5.4
   42.65     209     5.5
    42.7     211     5.5
   42.75     211     5.5
    42.8     216     5.6
   42.85     205     5.4
    42.9     204     5.4
   42.95     202     5.4
      43     201     5.4
   43.05     200     5.3
    43.1     207     5.4
   43.15     205     5.4
    43.2     202     5.4
   43.25     209     5.5
    43.3     202     5.4
   43.35     203     5.4
    43.4     206     5.4
   43.45     206     5.4
    43.5     200     5.3
   43.55     194     5.3
    43.6     199     5.3
   43.65     204     5.4
    43.7     205     5.4
   43.75     210     5.5
    43.8     207     5.4
   43.85     205     5.4
    43.9     210     5.5
   43.95     204     5.4
      44     203     5.4
   44.05     202     5.4
    44.1     205     5.4
   44.15     201     5.4
    44.2     201     5.4
   44.25     207     5.4
    44.3     197     5.3
   44.35     198     5.3
    44.4     203     5.4
   44.45     209     5.5
    44.5     209     5.5
   44.55     208     5.5
    44.6     204     5.4
   44.65     209     5.5
    44.7     199     5.3
   44.75     204     5.4
    44.8     206     5.4
   44.85     201     5.4
    44.9     205     5.4
   44.95     202     5.4
      45     204     5.4
   45.05     198     5.3
    45.1     198     5.3
   45.15     213     5.5
    45.2     210     5.5
   45.25     212     5.5
    45.3     214     5.5
   45.35     215     5.5
    45.4     217     5.6
   45.45     210     5.5
    45.5     214     5.5
   45.55     215     5.5
    45.6     215     5.5
   45.65     215     5.5
    45.7     217     5.6
   45.75     222     5.6
    45.8     231     5.7
   45.85     247     5.9
    45.9     252       6
   45.95     273     6.2
      46     304     6.6
   46.05     332     6.9
    46.1     366     7.2
   46.15     408     7.6
    46.2     463     8.1
   46.25     532     8.7
    46.3     619     9.4
   46.35     734    10.2
    46.4     828    10.9
   46.45     944    11.6
    46.5    1003      12
   46.55    1055    12.3
    46.6    1070    12.4
   46.65    1018    12.1
    46.7     944    11.6
   46.75     833    10.9
    46.8     725    10.2
   46.85     633     9.5
    46.9     507     8.5
   46.95     445       8
      47     379     7.4
   47.05     347       7
    47.1     316     6.7
   47.15     282     6.3
    47.2     267     6.2
   47.25     269     6.2
    47.3     281     6.3
   47.35     288     6.4
    47.4     300     6.5
   47.45     327     6.8
    47.5     346       7
   47.55     380     7.4
    47.6     400     7.6
   47.65     430     7.8
    47.7     453       8
   47.75     459     8.1
    47.8     451       8
   47.85     427     7.8
    47.9     402     7.6
   47.95     375     7.3
      48     344       7
   48.05     309     6.6
    48.1     277     6.3
   48.15     265     5.8
    48.2     246     5.5
   48.25     246     5.5
    48.3     230     5.4
   48.35     223     5.3
    48.4     227     5.3
   48.45     225     5.3
    48.5     217     5.2
   48.55     217     5.2
    48.6     223     5.3
   48.65     223     5.3
    48.7     220     5.2
   48.75     223     5.3
    48.8     226     5.3
   48.85     248     5.6
    48.9     258     5.7
   48.95     274     5.9
      49     297     6.1
   49.05     324     6.4
    49.1     355     6.7
   49.15     393       7
    49.2     458     7.6
   49.25     528     8.1
    49.3     589     8.6
   49.35     688     9.3
    49.4     781     9.9
   49.45     840    10.2
    49.5     876    10.5
   49.55     874    10.5
    49.6     832    10.2
   49.65     765     9.8
    49.7     682     9.2
   49.75     613     8.8
    49.8     524     8.1
   49.85     455     7.5
    49.9     408     7.1
   49.95     384     6.9
      50     366     6.8
   50.05     375     6.8
    50.1     392       7
   50.15     426     7.3
    50.2     470     7.7
   50.25     519     8.1
    50.3     588     8.6
   50.35     639     8.9
    50.4     681     9.2
   50.45     704     9.4
    50.5     693     9.3
   50.55     650       9
    50.6     600     8.7
   50.65     540     8.2
    50.7     478     7.7
   50.75     412     7.2
    50.8     376     6.9
   50.85     345     6.6
    50.9     330     6.4
   50.95     337     6.5
      51     350     6.6
   51.05     383     6.9
    51.1     426     7.3
   51.15     493     7.9
    51.2     571     8.4
   51.25     676     9.2
    51.3     803      10
   51.35     920    10.7
    51.4    1071    11.6
   51.45    1183    12.2
    51.5    1247    12.5
   51.55    1255    12.5
    51.6    1251    12.5
   51.65    1183    12.2
    51.7    1068    11.6
   51.75     945    10.9
    51.8     861    10.4
   51.85     811    10.1
    51.9     813    10.1
   51.95     872    10.4
      52     969      11
   52.05    1120    11.8
    52.1    1309    12.8
   52.15    1527    13.8
    52.2    1706    14.6
   52.25    1856    15.2
    52.3    1888    15.4
   52.35    1837    15.2
    52.4    1713    14.6
   52.45    1500    13.7
    52.5    1289    12.7
   52.55    1103    11.7
    52.6     904    10.6
   52.65     749     9.7
    52.7     627     8.9
   52.75     568     8.4
    52.8     551     8.3
   52.85     560     8.4
    52.9     586     8.6
   52.95     634     8.9
      53     691     9.3
   53.05     751     9.7
    53.1     799      10
   53.15     792     9.9
    53.2     820    10.1
   53.25     774     9.8
    53.3     736     9.6
   53.35     680     9.2
    53.4     627     8.9
   53.45     562     8.4
    53.5     514       8
   53.55     459     7.6
    53.6     424     7.3
   53.65     362     6.7
    53.7     333     6.5
   53.75     318     6.3
    53.8     300     6.1
   53.85     287       6
    53.9     265     5.8
   53.95     266     5.8
      54     262     5.7
   54.05     263     5.4
    54.1     255     5.3
   54.15     270     5.5
    54.2     278     5.6
   54.25     289     5.7
    54.3     317     5.9
   54.35     343     6.2
    54.4     400     6.7
   54.45     468     7.2
    54.5     561     7.9
   54.55     695     8.8
    54.6     873     9.8
   54.65    1100    11.1
    54.7    1372    12.3
   54.75    1660    13.6
    54.8    1954    14.7
   54.85    2224    15.7
    54.9    2400    16.3
   54.95    2459    16.5
      55    2435    16.4
   55.05    2245    15.8
    55.1    1986    14.9
   55.15    1671    13.6
    55.2    1358    12.3
   55.25    1086      11
    55.3     868     9.8
   55.35     682     8.7
    55.4     578       8
   55.45     521     7.6
    55.5     512     7.5
   55.55     537     7.7
    55.6     600     8.2
   55.65     704     8.8
    55.7     855     9.7
   55.75    1032    10.7
    55.8    1232    11.7
   55.85    1466    12.8
    55.9    1693    13.7
   55.95    1866    14.4
      56    1966    14.8
   56.05    2024      15
    56.1    2016      15
   56.15    1846    14.3
    56.2    1667    13.6
   56.25    1429    12.6
    56.3    1179    11.4
   56.35     950    10.3
    56.4     763     9.2
   56.45     599     8.2
    56.5     484     7.3
   56.55     404     6.7
    56.6     351     6.2
   56.65     304     5.8
    56.7     284     5.6
   56.75     273     5.5
    56.8     259     5.4
   56.85     251     5.3
    56.9     251     5.3
   56.95     252     5.3
      57     245     5.2
   57.05     259     5.4
    57.1     250     5.3
   57.15     253     5.3
    57.2     256     5.3
   57.25     264     5.4
    57.3     285     5.6
   57.35     301     5.8
    57.4     346     6.2
   57.45     390     6.6
    57.5     458     7.1
   57.55     528     7.7
    57.6     624     8.3
   57.65     733       9
    57.7     829     9.6
   57.75     916    10.1
    57.8     988    10.5
   57.85     994    10.5
    57.9     929    10.2
   57.95     843     9.7
      58     742     9.1
   58.05     638     8.4
    58.1     527     7.7
   58.15     434     6.9
    58.2     377     6.5
   58.25     320       6
    58.3     282     5.6
   58.35     273     5.5
    58.4     256     5.3
   58.45     243     5.2
    58.5     240     5.2
   58.55     240     5.2
    58.6     230     5.1
   58.65     220     4.9
    58.7     230     5.1
   58.75     227       5
    58.8     224       5
   58.85     219     4.9
    58.9     227       5
   58.95     227       5
      59     224       5
   59.05     222       5
    59.1     223       5
   59.15     217     4.9
    59.2     213     4.9
   59.25     216     4.9
    59.3     219     4.9
   59.35     219     4.9
    59.4     218     4.9
   59.45     220     4.9
    59.5     220     4.9
   59.55     220     4.9
    59.6     223       5
   59.65     233     5.1
    59.7     237     5.1
   59.75     249     5.3
    59.8     258     5.4
   59.85     261     5.4
    59.9     283     5.6
   59.95     304     5.8
      60     324     5.7
   60.05     347     5.9
    60.1     353     5.9
   60.15     359       6
    60.2     363       6
   60.25     352     5.9
    60.3     341     5.8
   60.35     330     5.7
    60.4     308     5.5
   60.45     291     5.4
    60.5     271     5.2
   60.55     254       5
    60.6     245     4.9
   60.65     245     4.9
    60.7     239     4.9
   60.75     228     4.8
    60.8     217     4.7
   60.85     217     4.7
    60.9     218     4.7
   60.95     223     4.7
      61     207     4.5
   61.05     218     4.7
    61.1     222     4.7
   61.15     215     4.6
    61.2     210     4.6
   61.25     216     4.6
    61.3     213     4.6
   61.35     212     4.6
    61.4     215     4.6
   61.45     212     4.6
    61.5     214     4.6
   61.55     211     4.6
    61.6     214     4.6
   61.65     217     4.7
    61.7     205     4.5
   61.75     207     4.5
    61.8     213     4.6
   61.85     208     4.6
    61.9     211     4.6
   61.95     205     4.5
      62     214     4.6
   62.05     213     4.6
    62.1     212     4.6
   62.15     212     4.6
    62.2     213     4.6
   62.25     207     4.5
    62.3     203     4.5
   62.35     211     4.6
    62.4     211     4.6
   62.45     214     4.6
    62.5     214     4.6
   62.55     207     4.5
    62.6     203     4.5
   62.65     212     4.6
    62.7     212     4.6
   62.75     214     4.6
    62.8     213     4.6
   62.85     202     4.5
    62.9     210     4.6
   62.95     211     4.6
      63     211     4.6
   63.05     214     4.6
    63.1     221     4.7
   63.15     217     4.7
    63.2     212     4.6
   63.25     214     4.6
    63.3     219     4.7
   63.35     223     4.7
    63.4     225     4.7
   63.45     227     4.8
    63.5     235     4.8
   63.55     240     4.9
    63.6     243     4.9
   63.65     252       5
    63.7     249       5
   63.75     249       5
    63.8     255       5
   63.85     262     5.1
    63.9     282     5.3
   63.95     308     5.5
      64     351     5.9
   64.05     398     6.3
    64.1     470     6.9
   64.15     525     7.2
    64.2     596     7.7
   64.25     646       8
    64.3     681     8.3
   64.35     665     8.2
    64.4     615     7.8
   64.45     563     7.5
    64.5     484       7
   64.55     421     6.5
    64.6     364       6
   64.65     317     5.6
    64.7     289     5.4
   64.75     261     5.1
    64.8     245     4.9
   64.85     233     4.8
    64.9     228     4.8
   64.95     219     4.7
      65     219     4.7
   65.05     217     4.7
    65.1     216     4.6
   65.15     221     4.7
    65.2     215     4.6
   65.25     215     4.6
    65.3     210     4.6
   65.35     212     4.6
    65.4     212     4.6
   65.45     204     4.5
    65.5     209     4.6
   65.55     206     4.5
    65.6     216     4.6
   65.65     207     4.5
    65.7     214     4.6
   65.75     207     4.5
    65.8     209     4.6
   65.85     218     4.7
    65.9     215     4.6
   65.95     222     4.7
      66     226     4.8
   66.05     230     4.8
    66.1     239     4.9
   66.15     249       5
    66.2     263     5.1
   66.25     275     5.2
    66.3     292     5.4
   66.35     317     5.6
    66.4     323     5.7
   66.45     341     5.8
    66.5     350     5.9
   66.55     330     5.7
    66.6     320     5.7
   66.65     307     5.5
    66.7     284     5.3
   66.75     275     5.2
    66.8     265     5.1
   66.85     269     5.2
    66.9     275     5.2
   66.95     292     5.4
      67     311     5.6
   67.05     338     5.8
    67.1     387     6.2
   67.15     413     6.4
    67.2     463     6.8
   67.25     510     7.1
    67.3     534     7.3
   67.35     559     7.5
    67.4     539     7.3
   67.45     533     7.3
    67.5     500     7.1
   67.55     471     6.9
    67.6     455     6.7
   67.65     410     6.4
    67.7     373     6.1
   67.75     342     5.8
    67.8     307     5.5
   67.85     288     5.4
    67.9     286     5.3
   67.95     281     5.3
      68     292     5.4
   68.05     291     5.4
    68.1     312     5.6
   68.15     326     5.7
    68.2     336     5.8
   68.25     346     5.9
    68.3     341     5.8
   68.35     327     5.7
    68.4     305     5.5
   68.45     277     5.3
    68.5     267     5.2
   68.55     249       5
    68.6     229     4.8
   68.65     221     4.7
    68.7     220     4.7
   68.75     217     4.7
    68.8     211     4.6
   68.85     204     4.5
    68.9     203     4.5
   68.95     220     4.7
      69     217     4.7
   69.05     217     4.7
    69.1     214     4.6
   69.15     205     4.5
    69.2     205     4.5
   69.25     211     4.6
    69.3     206     4.5
   69.35     208     4.6
    69.4     201     4.5
   69.45     208     4.6
    69.5     214     4.6
   69.55     212     4.6
    69.6     206     4.5
   69.65     216     4.6
    69.7     219     4.7
   69.75     215     4.6
    69.8     217     4.7
   69.85     211     4.6
    69.9     214     4.6
   69.95     215     4.6
      70     224     4.7
   70.05     217     4.7
    70.1     215     4.6
   70.15     218     4.7
    70.2     218     4.7
   70.25     228     4.8
    70.3     227     4.8
   70.35     228     4.8
    70.4     225     4.7
   70.45     219     4.7
    70.5     216     4.6
   70.55     219     4.7
    70.6     218     4.7
   70.65     214     4.6
    70.7     212     4.6
   70.75     221     4.7
    70.8     214     4.6
   70.85     208     4.6
    70.9     204     4.5
   70.95     209     4.6
      71     209     4.6
   71.05     208     4.6
    71.1     212     4.6
   71.15     213     4.6
    71.2     218     4.7
   71.25     212     4.6
    71.3     205     4.5
   71.35     207     4.5
    71.4     204     4.5
   71.45     206     4.5
    71.5     211     4.6
   71.55     216     4.6
    71.6     214     4.6
   71.65     210     4.6
    71.7     219     4.7
   71.75     222     4.7
    71.8     224     4.7
   71.85     231     4.8
    71.9     227     4.8
   71.95     237     4.9
      72     235     4.8
   72.05     238     4.9
    72.1     245     4.9
   72.15     242     4.9
    72.2     248       5
   72.25     246       5
    72.3     243     4.9
   72.35     253       5
    72.4     259     5.1
   72.45     278     5.3
    72.5     281     5.3
   72.55     297     5.4
    72.6     310     5.6
   72.65     324     5.7
    72.7     322     5.7
   72.75     311     5.6
    72.8     295     5.4
   72.85     281     5.3
    72.9     259     5.1
   72.95     250       5
      73     239     4.9
   73.05     233     4.8
    73.1     227     4.8
   73.15     226     4.8
    73.2     223     4.7
   73.25     211     4.6
    73.3     209     4.6
   73.35     217     4.7
    73.4     214     4.6
   73.45     213     4.6
    73.5     217     4.7
   73.55     220     4.7
    73.6     210     4.6
   73.65     209     4.6
    73.7     215     4.6
   73.75     218     4.7
    73.8     215     4.6
   73.85     217     4.7
    73.9     221     4.7
   73.95     217     4.7
      74     219     4.7
   74.05     220     4.7
    74.1     228     4.8
   74.15     229     4.8
    74.2     230     4.8
   74.25     234     4.8
    74.3     251       5
   74.35     261     5.1
    74.4     288     5.4
   74.45     313     5.6
    74.5     362       6
   74.55     424     6.5
    74.6     524     7.2
   74.65     646       8
    74.7     781     8.8
   74.75     920     9.6
    74.8    1024    10.1
   74.85    1120    10.6
    74.9    1187    10.9
   74.95    1187    10.9
      75    1166    10.8
   75.05    1114    10.6
    75.1    1044    10.2
   75.15     991      10
    75.2     927     9.6
   75.25     823     9.1
    75.3     717     8.5
   75.35     619     7.9
    75.4     520     7.2
   75.45     421     6.5
    75.5     353     5.9
   75.55     308     5.5
    75.6     273     5.2
   75.65     256     5.1
    75.7     245     4.9
   75.75     234     4.8
    75.8     230     4.8
   75.85     224     4.7
    75.9     232     4.8
   75.95     226     4.8
      76     222     4.7
   76.05     222     4.7
    76.1     227     4.8
   76.15     225     4.7
    76.2     226     4.8
   76.25     227     4.8
    76.3     229     4.8
   76.35     235     4.8
    76.4     233     4.8
   76.45     243     4.9
    76.5     238     4.9
   76.55     237     4.9
    76.6     236     4.9
   76.65     232     4.8
    76.7     231     4.8
   76.75     227     4.8
    76.8     225     4.7
   76.85     220     4.7
    76.9     218     4.7
   76.95     215     4.6
      77     219     4.7
   77.05     224     4.7
    77.1     225     4.7
   77.15     222     4.7
    77.2     231     4.8
   77.25     243     4.9
    77.3     250       5
   77.35     269     5.2
    77.4     286     5.3
   77.45     310     5.6
    77.5     325     5.7
   77.55     332     5.8
    77.6     337     5.8
   77.65     329     5.7
    77.7     303     5.5
   77.75     278     5.3
    77.8     268     5.2
   77.85     252       5
    77.9     236     4.9
   77.95     228     4.8
      78     219     4.7
   78.05     225     4.7
    78.1     222     4.7
   78.15     214     4.6
    78.2     228     4.8
   78.25     221     4.7
    78.3     217     4.7
   78.35     221     4.7
    78.4     222     4.7
   78.45     226     4.8
    78.5     237     4.9
   78.55     246       5
    78.6     255       5
   78.65     269     5.2
    78.7     284     5.3
   78.75     302     5.5
    78.8     313     5.6
   78.85     327     5.7
    78.9     321     5.7
   78.95     333     5.8
      79     331     5.8
   79.05     332     5.8
    79.1     358       6
   79.15     402     6.3
    79.2     460     6.8
   79.25     557     7.5
    79.3     660     8.1
   79.35     769     8.8
    79.4     859     9.3
   79.45     934     9.7
    79.5     955     9.8
   79.55     921     9.6
    79.6     824     9.1
   79.65     694     8.3
    79.7     578     7.6
   79.75     474     6.9
    79.8     402     6.3
   79.85     344     5.9
    79.9     306     5.5
   79.95     300     5.5
      80     292     5.4
   80.05     292     5.4
    80.1     302     5.5
   80.15     304     5.5
    80.2     306     5.5
   80.25     305     5.5
    80.3     303     5.5
   80.35     299     5.5
    80.4     278     5.3
   80.45     259     5.1
    80.5     257     5.1
   80.55     245     4.9
    80.6     237     4.9
   80.65     240     4.9
    80.7     233     4.8
   80.75     232     4.8
    80.8     235     4.8
   80.85     241     4.9
    80.9     257     5.1
   80.95     274     5.2
      81     292     5.4
   81.05     309     5.6
    81.1     333     5.8
   81.15     360       6
    81.2     381     6.2
   81.25     387     6.2
    81.3     387     6.2
   81.35     386     6.2
    81.4     382     6.2
   81.45     368     6.1
    81.5     363       6
   81.55     352     5.9
    81.6     337     5.8
   81.65     321     5.7
    81.7     297     5.4
   81.75     281     5.3
    81.8     265     5.1
   81.85     255       5
    81.9     251       5
   81.95     237     4.9
      82     238     4.9
   82.05     237     4.9
    82.1     228     4.8
   82.15     240     4.9
    82.2     234     4.8
   82.25     226     4.8
    82.3     229     4.8
   82.35     228     4.8
    82.4     233     4.8
   82.45     243     4.9
    82.5     241     4.9
   82.55     257     5.1
    82.6     279     5.3
   82.65     305     5.5
    82.7     345     5.9
   82.75     410     6.4
    82.8     455     6.7
   82.85     545     7.4
    82.9     622     7.9
   82.95     673     8.2
      83     725     8.5
   83.05     717     8.5
    83.1     661     8.1
   83.15     592     7.7
    83.2     518     7.2
   83.25     443     6.7
    83.3     371     6.1
   83.35     336     5.8
    83.4     290     5.4
   83.45     265     5.1
    83.5     252       5
   83.55     250       5
    83.6     244     4.9
   83.65     242     4.9
    83.7     241     4.9
   83.75     243     4.9
    83.8     248       5
   83.85     253       5
    83.9     252       5
   83.95     264     5.1
      84     266     5.2
   84.05     282     5.3
    84.1     291     5.4
   84.15     313     5.6
    84.2     346     5.9
   84.25     374     6.1
    84.3     415     6.4
   84.35     430     6.6
    84.4     433     6.6
   84.45     430     6.6
    84.5     406     6.4
   84.55     384     6.2
    84.6     349     5.9
   84.65     318     5.6
    84.7     307     5.5
   84.75     298     5.5
    84.8     296     5.4
   84.85     304     5.5
    84.9     313     5.6
   84.95     328     5.7
      85     346     5.9
   85.05     341     5.8
    85.1     335     5.8
   85.15     324     5.7
    85.2     336     5.8
   85.25     341     5.8
    85.3     341     5.8
   85.35     370     6.1
    85.4     414     6.4
   85.45     442     6.6
    85.5     490       7
   85.55     520     7.2
    85.6     532     7.3
   85.65     548     7.4
    85.7     561     7.5
   85.75     567     7.5
    85.8     585     7.6
   85.85     584     7.6
    85.9     558     7.5
   85.95     527     7.3
      86     481     6.9
   86.05     424     6.5
    86.1     370     6.1
   86.15     333     5.8
    86.2     312     5.6
   86.25     301     5.5
    86.3     307     5.5
   86.35     314     5.6
    86.4     340     5.8
   86.45     379     6.2
    86.5     427     6.5
   86.55     467     6.8
    86.6     535     7.3
   86.65     584     7.6
    86.7     602     7.8
   86.75     580     7.6
    86.8     532     7.3
   86.85     481     6.9
    86.9     426     6.5
   86.95     379     6.2
      87     329     5.7
   87.05     303     5.5
    87.1     288     5.4
   87.15     271     5.2
    87.2     269     5.2
   87.25     267     5.2
    87.3     263     5.1
   87.35     267     5.2
    87.4     260     5.1
   87.45     260     5.1
    87.5     263     5.1
   87.55     263     5.1
    87.6     270     5.2
   87.65     278     5.3
    87.7     293     5.4
   87.75     318     5.6
    87.8     364       6
   87.85     424     6.5
    87.9     512     7.2
   87.95     643       8
      88     817       9
   88.05     982     9.9
    88.1    1163    10.8
   88.15    1289    11.4
    88.2    1373    11.7
   88.25    1393    11.8
    88.3    1348    11.6
   88.35    1244    11.2
    88.4    1157    10.8
   88.45    1077    10.4
    88.5    1020    10.1
   88.55     965     9.8
    88.6     907     9.5
   88.65     858     9.3
    88.7     771     8.8
   88.75     647       8
    88.8     555     7.4
   88.85     468     6.8
    88.9     405     6.4
   88.95     348     5.9
      89     316     5.6
   89.05     291     5.4
    89.1     277     5.3
   89.15     278     5.3
    89.2     270     5.2
   89.25     262     5.1
    89.3     268     5.2
   89.35     270     5.2
    89.4     279     5.3
   89.45     287     5.4
    89.5     300     5.5
   89.55     319     5.6
    89.6     347     5.9
   89.65     378     6.1
    89.7     420     6.5
   89.75     469     6.8
    89.8     536     7.3
   89.85     645       8
    89.9     773     8.8
   89.95     925     9.6
      90    1115    10.6
   90.05    1254    11.2
    90.1    1367    11.7
   90.15    1400    11.8
    90.2    1327    11.5
   90.25    1188    10.9
    90.3    1038    10.2
   90.35     879     9.4
    90.4     738     8.6
   90.45     644       8
    90.5     594     7.7
   90.55     601     7.8
    90.6     643       8
   90.65     697     8.3
    90.7     786     8.9
   90.75     842     9.2
    90.8     847     9.2
   90.85     791     8.9
    90.9     702     8.4
   90.95     592     7.7
      91     508     7.1
   91.05     418     6.5
    91.1     362       6
   91.15     328     5.7
    91.2     299     5.5
   91.25     279     5.3
    91.3     270     5.2
   91.35     257     5.1
    91.4     253       5
   91.45     258     5.1
    91.5     257     5.1
   91.55     249       5
    91.6     245     4.9
   91.65     257     5.1
    91.7     260     5.1
   91.75     284     5.3
    91.8     296     5.4
   91.85     322     5.7
    91.9     343     5.9
   91.95     382     6.2
      92     405     6.4
   92.05     411     6.4
    92.1     416     6.4
   92.15     406     6.4
    92.2     372     6.1
   92.25     353     5.9
    92.3     330     5.7
   92.35     317     5.6
    92.4     313     5.6
   92.45     312     5.6
    92.5     309     5.6
   92.55     303     5.5
    92.6     288     5.4
   92.65     276     5.3
    92.7     264     5.1
   92.75     246       5
    92.8     249       5
   92.85     241     4.9
    92.9     251       5
   92.95     243     4.9
      93     246       5
   93.05     246       5
    93.1     249       5
   93.15     244     4.9
    93.2     252       5
   93.25     252       5
    93.3     258     5.1
   93.35     265     5.1
    93.4     263     5.1
   93.45     284     5.3
    93.5     299     5.5
   93.55     320     5.7
    93.6     344     5.9
   93.65     363       6
    93.7     372     6.1
   93.75     358       6
    93.8     351     5.9
   93.85     354     5.9
    93.9     330     5.7
   93.95     322     5.7
      94     334     5.8
   94.05     339     5.8
    94.1     345     5.9
   94.15     357       6
    94.2     360       6
   94.25     358       6
    94.3     372     6.1
   94.35     425     6.5
    94.4     511     7.1
   94.45     626     7.9
    94.5     770     8.8
   94.55     946     9.7
    94.6    1118    10.6
   94.65    1205      11
    94.7    1227    11.1
   94.75    1157    10.8
    94.8    1041    10.2
   94.85     873     9.3
    94.9     715     8.5
   94.95     562     7.5
      95     446     6.7
   95.05     377     6.1
    95.1     332     5.8
   95.15     297     5.4
    95.2     282     5.3
   95.25     276     5.3
    95.3     264     5.1
   95.35     261     5.1
    95.4     266     5.2
   95.45     261     5.1
    95.5     253       5
   95.55     258     5.1
    95.6     262     5.1
   95.65     260     5.1
    95.7     283     5.3
   95.75     307     5.5
    95.8     344     5.9
   95.85     402     6.3
    95.9     453     6.7
   95.95     529     7.3
      96     604     7.8
   96.05     661     8.1
    96.1     672     8.2
   96.15     629     7.9
    96.2     588     7.7
   96.25     510     7.1
    96.3     440     6.6
   96.35     377     6.1
    96.4     330     5.7
   96.45     301     5.5
    96.5     280     5.3
   96.55     269     5.2
    96.6     258     5.1
   96.65     252       5
    96.7     251       5
   96.75     252       5
    96.8     256     5.1
   96.85     253       5
    96.9     253       5
   96.95     253       5
      97     262     5.1
   97.05     265     5.1
    97.1     284     5.3
   97.15     291     5.4
    97.2     323     5.7
   97.25     374     6.1
    97.3     431     6.6
   97.35     511     7.1
    97.4     602     7.8
   97.45     678     8.2
    97.5     743     8.6
   97.55     756     8.7
    97.6     717     8.5
   97.65     657     8.1
    97.7     581     7.6
   97.75     490       7
    97.8     418     6.5
   97.85     364       6
    97.9     335     5.8
   97.95     306     5.5
      98     290     5.4
   98.05     286     5.3
    98.1     283     5.3
   98.15     283     5.3
    98.2     274     5.2
   98.25     262     5.1
    98.3     266     5.2
   98.35     261     5.1
    98.4     261     5.1
   98.45     264     5.1
    98.5     269     5.2
   98.55     278     5.3
    98.6     288     5.4
   98.65     306     5.5
    98.7     319     5.6
   98.75     330     5.7
    98.8     343     5.9
   98.85     341     5.8
    98.9     325     5.7
   98.95     318     5.6
      99     298     5.5
   99.05     299     5.5
    99.1     288     5.4
   99.15     309     5.6
    99.2     344     5.9
   99.25     382     6.2
    99.3     422     6.5
   99.35     470     6.9
    99.4     512     7.2
   99.45     514     7.2
    99.5     515     7.2
   99.55     488       7
    99.6     440     6.6
   99.65     396     6.3
    99.7     366       6
   99.75     332     5.8
    99.8     311     5.6
   99.85     305     5.5
    99.9     300     5.5
   99.95     293     5.4
     100     286     5.3
  100.05     306     5.5
   100.1     313     5.6
  100.15     317     5.6
   100.2     327     5.7
  100.25     343     5.9
   100.3     330     5.7
  100.35     320     5.7
   100.4     307     5.5
  100.45     298     5.5
   100.5     282     5.3
  100.55     274     5.2
   100.6     266     5.2
  100.65     274     5.2
   100.7     271     5.2
  100.75     274     5.2
   100.8     290     5.4
  100.85     302     5.5
   100.9     321     5.7
  100.95     350     5.9
     101     367     6.1
  101.05     386     6.2
   101.1     394     6.3
  101.15     370     6.1
   101.2     356       6
  101.25     332     5.8
   101.3     310     5.6
  101.35     288     5.4
   101.4     279     5.3
  101.45     281     5.3
   101.5     274     5.2
  101.55     284     5.3
   101.6     280     5.3
  101.65     270     5.2
   101.7     278     5.3
  101.75     269     5.2
   101.8     273     5.2
  101.85     268     5.2
   101.9     267     5.2
  101.95     265     5.1
     102     257     5.3
  102.05     258     5.4
   102.1     267     5.4
  102.15     267     5.4
   102.2     277     5.5
  102.25     287     5.6
   102.3     302     5.8
  102.35     332     6.1
   102.4     360     6.3
  102.45     411     6.8
   102.5     457     7.1
  102.55     524     7.6
   102.6     608     8.2
  102.65     699     8.8
   102.7     861     9.8
  102.75    1096      11
   102.8    1377    12.4
  102.85    1685    13.7
   102.9    1901    14.5
  102.95    2069    15.2
     103    2016      15
  103.05    1800    14.1
   103.1    1500    12.9
  103.15    1181    11.5
   103.2     937    10.2
  103.25     728       9
   103.3     629     8.4
  103.35     576       8
   103.4     556     7.9
  103.45     535     7.7
   103.5     519     7.6
  103.55     486     7.3
   103.6     465     7.2
  103.65     429     6.9
   103.7     385     6.5
  103.75     361     6.3
   103.8     342     6.2
  103.85     312     5.9
   103.9     293     5.7
  103.95     279     5.6
     104     277     5.5
  104.05     265     5.4
   104.1     257     5.3
  104.15     256     5.3
   104.2     250     5.3
  104.25     260     5.4
   104.3     261     5.4
  104.35     258     5.4
   104.4     263     5.4
  104.45     268     5.5
   104.5     284     5.6
  104.55     306     5.8
   104.6     325       6
  104.65     337     6.1
   104.7     337     6.1
  104.75     344     6.2
   104.8     340     6.1
  104.85     337     6.1
   104.9     328       6
  104.95     321       6
     105     306     5.8
  105.05     295     5.7
   105.1     289     5.7
  105.15     281     5.6
   105.2     267     5.4
  105.25     266     5.4
   105.3     270     5.5
  105.35     263     5.4
   105.4     256     5.3
  105.45     266     5.4
   105.5     264     5.4
  105.55     259     5.4
   105.6     261     5.4
  105.65     261     5.4
   105.7     258     5.4
  105.75     253     5.3
   105.8     248     5.2
  105.85     244     5.2
   105.9     249     5.3
  105.95     251     5.3
     106     245     5.2
  106.05     245     5.2
   106.1     247     5.2
  106.15     247     5.2
   106.2     254     5.3
  106.25     259     5.4
   106.3     250     5.3
  106.35     251     5.3
   106.4     258     5.4
  106.45     252     5.3
   106.5     255     5.3
  106.55     259     5.4
   106.6     256     5.3
  106.65     264     5.4
   106.7     268     5.5
  106.75     281     5.6
   106.8     303     5.8
  106.85     331     6.1
   106.9     371     6.4
  106.95     420     6.8
     107     484     7.3
  107.05     532     7.7
   107.1     576       8
  107.15     582       8
   107.2     563     7.9
  107.25     527     7.7
   107.3     490     7.4
  107.35     465     7.2
   107.4     467     7.2
  107.45     449     7.1
   107.5     416     6.8
  107.55     393     6.6
   107.6     366     6.4
  107.65     331     6.1
   107.7     316     5.9
  107.75     297     5.7
   107.8     294     5.7
  107.85     292     5.7
   107.9     286     5.6
  107.95     295     5.7
     108     306     6.2
  108.05     315     6.3
   108.1     334     6.5
  108.15     373     6.8
   108.2     406     7.1
  108.25     447     7.5
   108.3     499     7.9
  108.35     507       8
   108.4     506       8
  108.45     488     7.8
   108.5     432     7.3
  108.55     391       7
   108.6     342     6.5
  108.65     315     6.3
   108.7     292       6
  108.75     275     5.9
   108.8     274     5.9
  108.85     259     5.7
   108.9     250     5.6
  108.95     258     5.7
     109     252     5.6
  109.05     255     5.6
   109.1     254     5.6
  109.15     253     5.6
   109.2     254     5.6
  109.25     252     5.6
   109.3     257     5.7
  109.35     250     5.6
   109.4     255     5.6
  109.45     251     5.6
   109.5     254     5.6
  109.55     260     5.7
   109.6     249     5.6
  109.65     253     5.6
   109.7     254     5.6
  109.75     259     5.7
   109.8     268     5.8
  109.85     270     5.8
   109.9     284       6
  109.95     305     6.2
     110     322     6.3
  110.05     364     6.7
   110.1     417     7.2
  110.15     470     7.7
   110.2     573     8.5
  110.25     678     9.2
   110.3     771     9.8
  110.35     847    10.3
   110.4     854    10.3
  110.45     794      10
   110.5     720     9.5
  110.55     611     8.7
   110.6     520     8.1
  110.65     463     7.6
   110.7     412     7.2
  110.75     399     7.1
   110.8     416     7.2
  110.85     428     7.3
   110.9     432     7.3
  110.95     420     7.2
     111     402     7.1
  111.05     364     6.7
   111.1     348     6.6
  111.15     334     6.5
   111.2     321     6.3
  111.25     330     6.4
   111.3     342     6.5
  111.35     380     6.9
   111.4     385     6.9
  111.45     420     7.2
   111.5     441     7.4
  111.55     465     7.6
   111.6     444     7.4
  111.65     406     7.1
   111.7     383     6.9
  111.75     345     6.6
   111.8     332     6.4
  111.85     321     6.3
   111.9     308     6.2
  111.95     292       6
     112     303     6.2
  112.05     314     6.3
   112.1     333     6.5
  112.15     379     6.9
   112.2     438     7.4
  112.25     505     7.9
   112.3     594     8.6
  112.35     659     9.1
   112.4     717     9.5
  112.45     738     9.6
   112.5     710     9.4
  112.55     642       9
   112.6     547     8.3
  112.65     492     7.8
   112.7     421     7.3
  112.75     386     6.9
   112.8     344     6.6
  112.85     337     6.5
   112.9     350     6.6
  112.95     364     6.7
     113     415     7.2
  113.05     506       8
   113.1     586     8.6
  113.15     674     9.2
   113.2     750     9.7
  113.25     787     9.9
   113.3     753     9.7
  113.35     682     9.2
   113.4     597     8.6
  113.45     499     7.9
   113.5     417     7.2
  113.55     362     6.7
   113.6     340     6.5
  113.65     302     6.1
   113.7     286       6
  113.75     280     5.9
   113.8     283     5.9
  113.85     276     5.9
   113.9     282     5.9
  113.95     284       6
     114     295     6.5
  114.05     310     6.7
   114.1     319     6.8
  114.15     321     6.8
   114.2     304     6.6
  114.25     298     6.5
   114.3     293     6.5
  114.35     283     6.4
   114.4     277     6.3
  114.45     269     6.2
   114.5     265     6.2
  114.55     277     6.3
   114.6     283     6.4
  114.65     283     6.4
   114.7     293     6.5
  114.75     303     6.6
   114.8     320     6.8
  114.85     316     6.7
   114.9     331     6.9
  114.95     346       7
     115     327     6.8
  115.05     328     6.8
   115.1     306     6.6
  115.15     291     6.4
   115.2     286     6.4
  115.25     278     6.3
   115.3     273     6.2
  115.35     267     6.2
   115.4     272     6.2
  115.45     257     6.1
   115.5     260     6.1
  115.55     265     6.2
   115.6     264     6.1
  115.65     272     6.2
   115.7     270     6.2
  115.75     268     6.2
   115.8     269     6.2
  115.85     287     6.4
   115.9     292     6.5
  115.95     295     6.5
     116     317     6.7
  116.05     335     6.9
   116.1     364     7.2
  116.15     410     7.7
   116.2     477     8.3
  116.25     556     8.9
   116.3     642     9.6
  116.35     755    10.4
   116.4     864    11.1
  116.45     946    11.6
   116.5     970    11.8
  116.55     941    11.6
   116.6     870    11.1
  116.65     759    10.4
   116.7     647     9.6
  116.75     540     8.8
   116.8     468     8.2
  116.85     418     7.7
   116.9     379     7.4
  116.95     381     7.4
     117     405     7.6
  117.05     446       8
   117.1     476     8.2
  117.15     523     8.6
   117.2     561       9
  117.25     555     8.9
   117.3     529     8.7
  117.35     485     8.3
   117.4     436     7.9
  117.45     398     7.5
   117.5     355     7.1
  117.55     322     6.8
   117.6     304     6.6
  117.65     285     6.4
   117.7     270     6.2
  117.75     278     6.3
   117.8     260     6.1
  117.85     268     6.2
   117.9     264     6.1
  117.95     265     6.2
     118     263     6.1
  118.05     267     6.2
   118.1     286     6.4
  118.15     293     6.5
   118.2     291     6.4
  118.25     319     6.8
   118.3     366     7.2
  118.35     411     7.7
   118.4     461     8.1
  118.45     489     8.4
   118.5     521     8.6
  118.55     555     8.9
   118.6     550     8.9
  118.65     511     8.5
   118.7     486     8.3
  118.75     436     7.9
   118.8     392     7.5
  118.85     368     7.3
   118.9     330     6.9
  118.95     328     6.8
     119     343       7
  119.05     371     7.3
   119.1     394     7.5
  119.15     441     7.9
   119.2     468     8.2
  119.25     469     8.2
   119.3     456     8.1
  119.35     416     7.7
   119.4     394     7.5
  119.45     361     7.2
   119.5     330     6.9
  119.55     312     6.7
   119.6     293     6.5
  119.65     285     6.4
   119.7     286     6.4
  119.75     275     6.3
   119.8     274     6.3
  119.85     281     6.3
   119.9     279     6.3
  119.95     298     6.5
     120     312     7.2
  120.05     331     7.4
   120.1     375     7.9
  120.15     406     8.2
   120.2     452     8.7
  120.25     506     9.2
   120.3     546     9.5
  120.35     568     9.7
   120.4     589     9.9
  120.45     588     9.9
   120.5     537     9.5
  120.55     498     9.1
   120.6     463     8.8
  120.65     402     8.2
   120.7     386       8
  120.75     361     7.8
   120.8     350     7.6
  120.85     330     7.4
   120.9     338     7.5
  120.95     359     7.7
     121     364     7.8
  121.05     385       8
   121.1     436     8.5
  121.15     474     8.9
   121.2     544     9.5
  121.25     647    10.4
   121.3     695    10.8
  121.35     763    11.3
   121.4     802    11.6
  121.45     812    11.6
   121.5     756    11.2
  121.55     669    10.6
   121.6     606      10
  121.65     527     9.4
   121.7     452     8.7
  121.75     409     8.3
   121.8     376     7.9
  121.85     368     7.8
   121.9     391     8.1
  121.95     400     8.2
     122     444     8.6
  122.05     481       9
   122.1     518     9.3
  122.15     556     9.6
   122.2     577     9.8
  122.25     575     9.8
   122.3     557     9.6
  122.35     552     9.6
   122.4     562     9.7
  122.45     592     9.9
   122.5     596      10
  122.55     583     9.9
   122.6     552     9.6
  122.65     512     9.2
   122.7     482       9
  122.75     439     8.6
   122.8     385       8
  122.85     342     7.5
   122.9     316     7.3
  122.95     300     7.1
     123     287     6.9
  123.05     279     6.8
   123.1     267     6.7
  123.15     269     6.7
   123.2     269     6.7
  123.25     271     6.7
   123.3     261     6.6
  123.35     261     6.6
   123.4     265     6.6
  123.45     252     6.5
   123.5     260     6.6
  123.55     263     6.6
   123.6     265     6.6
  123.65     260     6.6
   123.7     274     6.8
  123.75     267     6.7
   123.8     271     6.7
  123.85     274     6.8
   123.9     269     6.7
  123.95     264     6.6
     124     277     6.8
  124.05     272     6.7
   124.1     277     6.8
  124.15     282     6.9
   124.2     290       7
  124.25     293       7
   124.3     294       7
  124.35     300     7.1
   124.4     325     7.4
  124.45     348     7.6
   124.5     382       8
  124.55     412     8.3
   124.6     466     8.8
  124.65     513     9.2
   124.7     562     9.7
  124.75     585     9.9
   124.8     608    10.1
  124.85     619    10.2
   124.9     594     9.9
  124.95     567     9.7
     125     526     9.4
  125.05     518     9.3
   125.1     501     9.1
  125.15     480     8.9
   125.2     470     8.9
  125.25     465     8.8
   125.3     469     8.8
  125.35     458     8.7
   125.4     438     8.5
  125.45     448     8.6
   125.5     470     8.9
  125.55     470     8.9
   125.6     500     9.1
  125.65     505     9.2
   125.7     519     9.3
  125.75     517     9.3
   125.8     517     9.3
  125.85     502     9.1
   125.9     460     8.8
  125.95     410     8.3
     126     375     8.7
  126.05     347     8.3
   126.1     347     8.3
  126.15     318       8
   126.2     310     7.9
  126.25     302     7.8
   126.3     311     7.9
  126.35     326     8.1
   126.4     320       8
  126.45     334     8.2
   126.5     374     8.6
  126.55     444     9.4
   126.6     484     9.8
  126.65     561    10.6
   126.7     647    11.4
  126.75     699    11.8
   126.8     747    12.2
  126.85     767    12.4
   126.9     749    12.2
  126.95     723      12
     127     664    11.5
  127.05     619    11.1
   127.1     578    10.8
  127.15     553    10.5
   127.2     541    10.4
  127.25     530    10.3
   127.3     530    10.3
  127.35     525    10.2
   127.4     517    10.2
  127.45     493     9.9
   127.5     482     9.8
  127.55     456     9.5
   127.6     423     9.2
  127.65     383     8.8
   127.7     380     8.7
  127.75     343     8.3
   127.8     326     8.1
  127.85     314     7.9
   127.9     302     7.8
  127.95     303     7.8
     128     290     7.6
  128.05     290     7.6
   128.1     293     7.7
  128.15     277     7.4
   128.2     286     7.6
  128.25     309     7.9
   128.3     327     8.1
  128.35     357     8.4
   128.4     396     8.9
  128.45     468     9.7
   128.5     529    10.3
  128.55     590    10.9
   128.6     649    11.4
  128.65     699    11.8
   128.7     720      12
  128.75     705    11.9
   128.8     672    11.6
  128.85     635    11.3
   128.9     604      11
  128.95     564    10.6
     129     548    10.5
  129.05     537    10.4
   129.1     564    10.6
  129.15     588    10.8
   129.2     611    11.1
  129.25     636    11.3
   129.3     636    11.3
  129.35     606      11
   129.4     600      11
  129.45     560    10.6
   129.5     512    10.1
  129.55     473     9.7
   129.6     453     9.5
  129.65     428     9.3
   129.7     390     8.8
  129.75     393     8.9
   129.8     401       9
  129.85     395     8.9
   129.9     440     9.4
  129.95     479     9.8
     130     549    10.5
  130.05     618    11.1
   130.1     675    11.6
  130.15     746    12.2
   130.2     803    12.7
  130.25     805    12.7
   130.3     788    12.6
  130.35     748    12.2
   130.4     671    11.6
  130.45     621    11.1
   130.5     544    10.4
  130.55     460     9.6
   130.6     421     9.2
  130.65     384     8.8
   130.7     343     8.3
  130.75     321       8
   130.8     298     7.7
  130.85     278     7.5
   130.9     287     7.6
  130.95     280     7.5
     131     268     7.3
  131.05     281     7.5
   131.1     272     7.4
  131.15     287     7.6
   131.2     282     7.5
  131.25     284     7.5
   131.3     300     7.7
  131.35     303     7.8
   131.4     309     7.9
  131.45     322       8
   131.5     340     8.2
  131.55     347     8.3
   131.6     370     8.6
  131.65     401       9
   131.7     420     9.2
  131.75     451     9.5
   131.8     491     9.9
  131.85     508    10.1
   131.9     530    10.3
  131.95     531    10.3
     132     522    10.2
  132.05     484      11
   132.1     468    10.8
  132.15     427    10.3
   132.2     379     9.7
  132.25     365     9.6
   132.3     344     9.3
  132.35     321       9
   132.4     294     8.6
  132.45     291     8.5
   132.5     284     8.4
  132.55     264     8.1
   132.6     281     8.4
  132.65     261     8.1
   132.7     256       8
  132.75     261     8.1
   132.8     266     8.2
  132.85     264     8.1
   132.9     258       8
  132.95     262     8.1
     133     250     7.9
  133.05     261     8.1
   133.1     257       8
  133.15     253       8
   133.2     247     7.9
  133.25     259       8
   133.3     259       8
  133.35     256       8
   133.4     253       8
  133.45     256       8
   133.5     257       8
  133.55     261     8.1
   133.6     246     7.8
  133.65     247     7.9
   133.7     250     7.9
  133.75     270     8.2
   133.8     254       8
  133.85     245     7.8
   133.9     254       8
  133.95     274     8.3
     134     272     8.2
  134.05     253       8
   134.1     260     8.1
  134.15     272     8.2
   134.2     265     8.1
  134.25     267     8.2
   134.3     276     8.3
  134.35     280     8.4
   134.4     289     8.5
  134.45     318     8.9
   134.5     331     9.1
  134.55     366     9.6
   134.6     386     9.8
  134.65     426    10.3
   134.7     461    10.7
  134.75     495    11.1
   134.8     532    11.5
  134.85     591    12.2
   134.9     627    12.5
  134.95     616    12.4
     135     634    12.6
  135.05     668    12.9
   135.1     645    12.7
  135.15     620    12.4
   135.2     607    12.3
  135.25     560    11.8
   135.3     518    11.4
  135.35     470    10.8
   135.4     445    10.5
  135.45     398      10
   135.5     376     9.7
  135.55     336     9.2
   135.6     325       9
  135.65     301     8.7
   135.7     303     8.7
  135.75     275     8.3
   135.8     273     8.3
  135.85     288     8.5
   135.9     278     8.3
  135.95     274     8.3
     136     273     8.3
  136.05     260     8.1
   136.1     268     8.2
  136.15     276     8.3
   136.2     276     8.3
  136.25     294     8.6
   136.3     293     8.6
  136.35     277     8.3
   136.4     292     8.5
  136.45     284     8.4
   136.5     273     8.3
  136.55     291     8.5
   136.6     287     8.5
  136.65     303     8.7
   136.7     306     8.7
  136.75     315     8.9
   136.8     333     9.1
  136.85     367     9.6
   136.9     387     9.8
  136.95     404      10
     137     440    10.5
  137.05     480      11
   137.1     533    11.5
  137.15     601    12.3
   137.2     620    12.4
  137.25     647    12.7
   137.3     663    12.9
  137.35     652    12.8
   137.4     665    12.9
  137.45     630    12.5
   137.5     628    12.5
  137.55     577      12
   137.6     520    11.4
  137.65     472    10.9
   137.7     453    10.6
  137.75     413    10.2
   137.8     412    10.1
  137.85     396     9.9
   137.9     361      11
  137.95     370    11.1
     138     402    11.6
  138.05     389    11.4
   138.1     423    11.9
  138.15     452    12.3
   138.2     469    12.5
  138.25     498    12.9
   138.3     535    13.4
  138.35     538    13.4
   138.4     564    13.7
  138.45     572    13.8
   138.5     585      14
  138.55     574    13.8
   138.6     543    13.5
  138.65     495    12.8
   138.7     484    12.7
  138.75     460    12.4
   138.8     428    11.9
  138.85     375    11.2
   138.9     341    10.7
  138.95     340    10.6
     139     312    10.2
  139.05     309    10.1
   139.1     288     9.8
  139.15     271     9.5
   139.2     273     9.5
  139.25     267     9.4
   139.3     255     9.2
  139.35     266     9.4
   139.4     261     9.3
  139.45     269     9.5
   139.5     257     9.3
  139.55     249     9.1
   139.6     245       9
  139.65     259     9.3
   139.7     258     9.3
  139.75     259     9.3
   139.8     268     9.5
  139.85     279     9.6
   139.9     256     9.2
  139.95     259     9.3
     140     287     9.8
  140.05     269     9.5
   140.1     281     9.7
  140.15     268     9.5
   140.2     277     9.6
  140.25     278     9.6
   140.3     287     9.8
  140.35     277     9.6
   140.4     285     9.7
  140.45     284     9.7
   140.5     278     9.6
  140.55     288     9.8
   140.6     279     9.6
  140.65     287     9.8
   140.7     289     9.8
  140.75     308    10.1
   140.8     308    10.1
  140.85     288     9.8
   140.9     302      10
  140.95     295     9.9
     141     301      10
  141.05     303      10
   141.1     294     9.9
  141.15     287     9.8
   141.2     279     9.6
  141.25     279     9.6
   141.3     276     9.6
  141.35     275     9.6
   141.4     264     9.4
  141.45     274     9.6
   141.5     269     9.5
  141.55     269     9.5
   141.6     268     9.5
  141.65     261     9.3
   141.7     256     9.2
  141.75     284     9.7
   141.8     279     9.6
  141.85     280     9.7
   141.9     296     9.9
  141.95     297     9.9
     142     296     9.9
  142.05     308    10.1
   142.1     301      10
  142.15     300      10
   142.2     297     9.9
  142.25     300      10
   142.3     289     9.8
  142.35     290     9.8
   142.4     274     9.6
  142.45     275     9.6
   142.5     264     9.4
  142.55     262     9.3
   142.6     249     9.1
  142.65     251     9.1
   142.7     248     9.1
  142.75     252     9.2
   142.8     249     9.1
  142.85     249     9.1
   142.9     262     9.3
  142.95     251     9.1
     143     239     8.9
  143.05     263     9.4
   143.1     265     9.4
  143.15     240     8.9
   143.2     236     8.9
  143.25     250     9.1
   143.3     248     9.1
  143.35     248     9.1
   143.4     254     9.2
  143.45     262     9.3
   143.5     252     9.2
  143.55     246     9.1
   143.6     250     9.1
  143.65     251     9.1
   143.7     247     9.1
  143.75     248     9.1
   143.8     254     9.2
  143.85     236     8.9
   143.9     251     9.1
  143.95     247     9.1
     144     254     9.2
  144.05     248     9.1
   144.1     259    11.4
  144.15     259    11.4
   144.2     274    11.7
  144.25     263    11.5
   144.3     287      12
  144.35     283    11.9
   144.4     281    11.9
  144.45     296    12.2
   144.5     292    12.1
  144.55     323    12.7
   144.6     330    12.8
  144.65     339      13
   144.7     358    13.4
  144.75     349    13.2
   144.8     365    13.5
  144.85     399    14.1
   144.9     406    14.2
  144.95     428    14.6
     145     413    14.4
  145.05     439    14.8
   145.1     418    14.5
  145.15     425    14.6
   145.2     411    14.3
  145.25     417    14.4
   145.3     391      14
  145.35     393      14
   145.4     386    13.9
  145.45     359    13.4
   145.5     381    13.8
  145.55     363    13.5
   145.6     364    13.5
  145.65     375    13.7
   145.7     379    13.8
  145.75     392      14
   145.8     402    14.2
  145.85     436    14.8
   145.9     451      15
  145.95     463    15.2
     146     452      15
  146.05     449      15
   146.1     479    15.5
  146.15     485    15.6
   146.2     484    15.6
  146.25     472    15.4
   146.3     508    15.9
  146.35     518    16.1
   146.4     523    16.2
  146.45     561    16.7
   146.5     559    16.7
  146.55     573    16.9
   146.6     545    16.5
  146.65     561    16.7
   146.7     568    16.9
  146.75     573    16.9
   146.8     562    16.8
  146.85     573    16.9
   146.9     565    16.8
  146.95     499    15.8
     147     496    15.7
  147.05     488    15.6
   147.1     449      15
  147.15     442    14.9
   147.2     391      14
  147.25     387    13.9
   147.3     390      14
  147.35     359    13.4
   147.4     338      13
  147.45     321    12.7
   147.5     322    12.7
  147.55     327    12.8
   147.6     338      13
  147.65     306    12.4
   147.7     290      12
  147.75     320    12.6
   147.8     308    12.4
  147.85     300    12.2
   147.9     307    12.4
  147.95     306    12.4
     148     314    12.5
  148.05     318    12.6
   148.1     298    12.2
  148.15     313    12.5
   148.2     303    12.3
  148.25     302    12.3
   148.3     333    12.9
  148.35     285    11.9
   148.4     312    12.5
  148.45     312    12.5
   148.5     285    11.9
  148.55     290      12
   148.6     288      12
  148.65     294    12.1
   148.7     314    12.5
  148.75     300    12.2
   148.8     306    12.4
  148.85     293    12.1
   148.9     299    12.2
  148.95     328    12.8
     149     325    12.7
  149.05     328    12.8
   149.1     317    12.6
  149.15     292    12.1
   149.2     321    12.7
  149.25     291    12.1
   149.3     302    12.3
  149.35     291    12.1
   149.4     297    12.2
  149.45     301    12.3
   149.5     270    11.6
  149.55     262    11.4
   149.6     277    11.8
  149.65     258    11.4
   149.7     258    11.4
  149.75     243      11
   149.8     269    11.6
  149.85     257    11.3
   149.9     257    11.3
  149.95     240      11
     150     282    16.8
  150.05     245    15.7
   150.1     243    15.6
  150.15     260    16.1
   150.2     255      16
  150.25     275    16.6
   150.3     255      16
  150.35     270    16.4
   150.4     286    16.9
  150.45     271    16.5
   150.5     258    16.1
  150.55     309    17.6
   150.6     299    17.3
  150.65     297    17.2
   150.7     304    17.4
  150.75     319    17.9
   150.8     314    17.7
  150.85     290      17
   150.9     338    18.4
  150.95     316    17.8
     151     341    18.5
  151.05     384    19.6
   151.1     360      19
  151.15     367    19.2
   151.2     383    19.6
  151.25     366    19.1
   151.3     369    19.2
  151.35     363    19.1
   151.4     332    18.2
  151.45     325      18
   151.5     334    18.3
  151.55     373    19.3
   151.6     336    18.3
  151.65     313    17.7
   151.7     339    18.4
  151.75     325      18
   151.8     307    17.5
  151.85     277    16.6
   151.9     286    16.9
  151.95     305    17.5
     152     277    16.6
  152.05     262    16.2
   152.1     262    16.2
  152.15     241    15.5
   152.2     251    15.8
  152.25     260    16.1
   152.3     245    15.7
  152.35     249    15.8
   152.4     260    16.1
  152.45     256      16
   152.5     242    15.6
  152.55     258    16.1
   152.6     248    15.7
  152.65     235    15.3
   152.7     245    15.7
  152.75     248    15.7
   152.8     281    16.8
  152.85     228    15.1
   152.9     230    15.2
  152.95     212    14.6
     153     237    15.4
  153.05     244    15.6
   153.1     231    15.2
  153.15     266    16.3
   153.2     231    15.2
  153.25     234    15.3
   153.3     247    15.7
  153.35     264    16.2
   153.4     247    15.7
  153.45     261    16.2
   153.5     223    14.9
  153.55     242    15.6
   153.6     271    16.5
  153.65     247    15.7
   153.7     249    15.8
  153.75     251    15.8
   153.8     232    15.2
  153.85     225      15
   153.9     255      16
  153.95     209    14.5
     154     266    16.3
  154.05     255      16
   154.1     273    16.5
  154.15     250    15.8
   154.2     234    15.3
  154.25     257      16
   154.3     250    15.8
  154.35     270    16.4
   154.4     262    16.2
  154.45     281    16.8
   154.5     257      16
  154.55     260    16.1
   154.6     257      16
  154.65     242    15.6
   154.7     255      16
  154.75     250    15.8
   154.8     274    16.6
  154.85     288      17
   154.9     275    16.6
  154.95     277    16.6
     155     278    16.7
  155.05     264    16.2
   155.1     298    17.3
  155.15     312    17.7
   155.2     282    16.8
  155.25     314    17.7
   155.3     341    18.5
  155.35     314    17.7
